1,-1.6
2,-3.66
3,-4.89
4,-3.21
5,-0.69
6,0.46
7,1.37
8,3.36
9,4.35
10,2.67
11,-0.08
12,-1.76
13,-1.15
14,0
15,0.53
16,1.15
17,1.07
18,-0.15
19,-1.07
20,-1.07
21,-1.53
22,-1.3
23,0.31
24,1.76
25,1.37
26,-0.23
27,-0.69
28,0.99
29,1.91
30,-0.53
31,-4.12
32,-5.04
33,-3.05
34,-0.61
35,0.53
36,0.99
37,1.45
38,0.53
39,-1.83
40,-2.44
41,0
42,3.28
43,3.59
44,-1.07
45,-5.8
46,-5.34
47,-2.29
48,0.15
49,2.14
50,2.44
51,0.69
52,-1.76
53,-2.82
54,-1.68
55,-0.38
56,-0.53
57,-0.38
58,0.53
59,1.15
60,0.76
61,-0.23
62,-1.22
63,-1.76
64,-1.68
65,-0.84
66,0.53
67,1.91
68,0.38
69,-4.27
70,-6.87
71,-3.97
72,0.23
73,1.91
74,1.15
75,0
76,-0.46
77,-0.08
78,1.37
79,2.98
80,2.82
81,0.99
82,-1.3
83,-3.21
84,-4.12
85,-3.28
86,0
87,3.28
88,4.12
89,3.66
90,2.29
91,-0.31
92,-3.28
93,-5.11
94,-4.35
95,-1.07
96,1.83
97,1.83
98,0
99,-1.6
100,-1.83
101,-0.61
102,0.23
103,0.31
104,0.15
105,-0.61
106,-0.38
107,1.37
108,2.52
109,2.6
110,2.67
111,2.52
112,1.83
113,0.15
114,-1.3
115,-0.53
116,0.92
117,0.23
118,-1.22
119,-1.76
120,-2.44
121,-3.82
122,-3.82
123,-1.98
124,-0.53
125,0.76
126,3.59
127,4.12
128,0
129,-2.67
130,-0.31
131,2.52
132,3.59
133,3.82
134,2.37
135,-0.99
136,-2.67
137,-1.45
138,-0.38
139,-0.38
140,-0.69
141,-1.22
142,-1.37
143,-0.23
144,1.07
145,1.91
146,3.74
147,5.65
148,3.89
149,0.38
150,-0.53
151,-1.53
152,-4.35
153,-4.73
154,-0.53
155,3.21
156,2.9
157,0.84
158,0.76
159,1.98
160,0.61
161,-2.67
162,-4.05
163,-2.98
164,-1.3
165,-0.69
166,-0.46
167,0.23
168,0.99
169,0.99
170,1.53
171,3.05
172,3.89
173,3.21
174,1.45
175,-0.69
176,-2.29
177,-2.6
178,-2.06
179,-1.91
180,-2.37
181,-1.22
182,2.06
183,3.21
184,1.37
185,0.53
186,1.22
187,1.68
188,2.06
189,1.83
190,0.76
191,0.23
192,0.31
193,0.31
194,-0.46
195,-2.37
196,-3.66
197,-2.6
198,0.38
199,2.75
200,2.67
201,1.22
202,-1.6
203,-4.43
204,-4.58
205,-2.44
206,-0.31
207,-0.46
208,-2.52
209,-1.91
210,1.91
211,4.66
212,3.13
213,-0.61
214,-2.67
215,-2.06
216,-0.76
217,0
218,0.31
219,1.37
220,2.44
221,1.3
222,-1.91
223,-4.43
224,-4.27
225,-1.3
226,2.6
227,4.96
228,3.89
229,1.53
230,0.84
231,0.84
232,1.3
233,3.28
234,5.27
235,5.11
236,3.21
237,0.08
238,-3.74
239,-5.57
240,-4.96
241,-4.5
242,-3.51
243,-1.15
244,1.07
245,3.36
246,5.5
247,6.26
248,5.73
249,4.96
250,3.97
251,2.82
252,1.15
253,-1.3
254,-2.9
255,-3.28
256,-3.74
257,-3.28
258,-0.92
259,0.53
260,-0.15
261,-1.6
262,-1.76
263,-1.22
264,-0.99
265,-1.3
266,-0.76
267,2.06
268,4.73
269,4.43
270,2.14
271,0.15
272,-2.44
273,-6.03
274,-6.72
275,-4.66
276,-3.82
277,-3.89
278,-3.59
279,-3.82
280,-4.89
281,-5.34
282,-3.28
283,0.23
284,2.37
285,2.52
286,0.92
287,-1.37
288,-1.76
289,0.53
290,3.51
291,4.73
292,3.89
293,3.28
294,3.05
295,2.75
296,3.66
297,5.19
298,5.34
299,4.66
300,4.05
301,2.6
302,0
303,-2.06
304,-2.98
305,-3.28
306,-1.6
307,1.07
308,1.76
309,0.15
310,-0.92
311,-0.84
312,0.31
313,3.13
314,6.18
315,7.1
316,5.04
317,0.69
318,-2.67
319,-3.44
320,-3.44
321,-3.28
322,-1.76
323,0.69
324,2.06
325,0.84
326,-1.22
327,-2.82
328,-3.97
329,-3.05
330,0.15
331,2.37
332,2.9
333,4.43
334,4.81
335,1.91
336,-1.53
337,-3.13
338,-3.28
339,-3.28
340,-2.82
341,-2.21
342,-2.75
343,-3.82
344,-2.9
345,-0.69
346,0
347,0.23
348,1.83
349,3.13
350,2.98
351,2.37
352,1.45
353,-0.69
354,-3.21
355,-3.89
356,-2.44
357,-0.08
358,1.22
359,1.37
360,0.92
361,-0.38
362,-2.06
363,-2.21
364,-1.3
365,-0.31
366,0.92
367,1.98
368,1.68
369,0.46
370,0
371,0.15
372,-0.31
373,-1.45
374,-1.76
375,-1.83
376,-3.05
377,-5.04
378,-6.49
379,-5.34
380,-1.68
381,1.68
382,2.98
383,1.91
384,0.15
385,-0.53
386,-1.53
387,-4.27
388,-6.34
389,-3.82
390,1.45
391,3.89
392,2.67
393,2.14
394,2.29
395,0.69
396,-1.07
397,-1.53
398,-1.83
399,-1.83
400,-1.07
401,-1.15
402,-3.05
403,-5.19
404,-4.89
405,-2.44
406,0.31
407,2.29
408,2.14
409,0.53
410,0.23
411,1.45
412,2.75
413,3.36
414,2.82
415,1.07
416,-0.99
417,-1.68
418,-0.76
419,-0.31
420,-0.15
421,0.38
422,0.15
423,-0.31
424,0.84
425,3.21
426,4.66
427,4.43
428,3.21
429,1.45
430,0.15
431,0
432,0.38
433,1.22
434,2.29
435,2.37
436,1.22
437,0.76
438,1.68
439,2.52
440,2.14
441,1.53
442,1.07
443,-0.15
444,-1.6
445,-1.53
446,0
447,1.45
448,2.06
449,2.6
450,3.97
451,3.21
452,-1.15
453,-3.59
454,-1.3
455,0.46
456,0.31
457,0.76
458,1.3
459,0.84
460,0.84
461,1.3
462,0.53
463,-0.38
464,-0.92
465,-1.07
466,0.61
467,2.98
468,2.67
469,0.31
470,-0.92
471,-0.84
472,-1.45
473,-1.83
474,-0.23
475,1.07
476,-0.92
477,-3.89
478,-3.51
479,-1.07
480,0
481,0.76
482,1.53
483,1.3
484,1.76
485,3.74
486,4.66
487,2.67
488,-0.99
489,-3.59
490,-3.51
491,-2.06
492,-0.84
493,-0.38
494,-0.69
495,-1.37
496,-0.53
497,1.45
498,2.37
499,2.21
500,1.83
501,0.31
502,-1.15
503,0.61
504,4.73
505,6.18
506,4.05
507,1.3
508,0.15
509,-0.31
510,-1.91
511,-3.97
512,-4.27
513,-2.29
514,0.23
515,0.76
516,-0.15
517,-0.31
518,1.07
519,2.37
520,1.76
521,-0.08
522,-0.53
523,-0.31
524,-0.76
525,0.46
526,4.05
527,5.34
528,2.82
529,-0.38
530,-2.21
531,-2.9
532,-3.82
533,-3.74
534,-1.22
535,0.84
536,0.53
537,-0.92
538,-1.91
539,-1.22
540,0.08
541,0.31
542,1.07
543,2.52
544,2.44
545,1.45
546,0.99
547,0.92
548,0.76
549,0.61
550,0.76
551,1.07
552,0.92
553,0.46
554,0.15
555,-0.08
556,-0.23
557,-0.31
558,0.99
559,3.82
560,4.73
561,2.44
562,0
563,-0.38
564,1.3
565,3.82
566,4.81
567,3.05
568,0.15
569,-1.98
570,-3.82
571,-4.5
572,-2.82
573,-0.31
574,0.38
575,0.31
576,2.06
577,4.81
578,5.04
579,2.29
580,0.08
581,-0.61
582,-1.45
583,-1.6
584,-0.08
585,0.61
586,-1.3
587,-2.44
588,-0.99
589,-0.61
590,-1.07
591,0
592,0.99
593,-0.15
594,-2.52
595,-2.6
596,0.46
597,3.82
598,5.65
599,6.34
600,5.5
601,1.3
602,-4.5
603,-6.26
604,-2.52
605,1.6
606,1.45
607,-2.37
608,-4.73
609,-3.36
610,-1.76
611,-1.68
612,-0.92
613,1.53
614,3.66
615,4.5
616,5.5
617,5.04
618,2.21
619,-0.38
620,-1.07
621,-0.31
622,0.31
623,0.92
624,1.91
625,0.92
626,-2.52
627,-4.2
628,-2.82
629,-0.69
630,1.6
631,4.58
632,6.03
633,4.89
634,2.98
635,0.38
636,-2.9
637,-4.66
638,-4.35
639,-3.21
640,-3.28
641,-4.05
642,-2.67
643,0.23
644,2.98
645,4.89
646,4.27
647,1.98
648,1.07
649,0.99
650,0.08
651,0
652,1.45
653,2.67
654,1.68
655,-0.99
656,-2.75
657,-1.83
658,0.15
659,0.92
660,0.38
661,0.23
662,0.69
663,1.3
664,0.99
665,-1.53
666,-4.43
667,-3.66
668,-0.08
669,2.82
670,3.59
671,2.29
672,0.38
673,0.15
674,1.6
675,2.9
676,3.28
677,2.37
678,-0.84
679,-4.58
680,-5.88
681,-4.66
682,-2.6
683,-1.22
684,-0.76
685,-1.83
686,-4.05
687,-5.42
688,-4.05
689,-1.07
690,1.76
691,3.66
692,4.35
693,4.05
694,3.59
695,3.59
696,2.44
697,-0.69
698,-3.59
699,-4.05
700,-3.44
701,-2.37
702,0.38
703,3.74
704,3.66
705,1.07
706,-0.08
707,0.61
708,1.3
709,1.37
710,0.99
711,-0.38
712,-1.22
713,0.61
714,2.37
715,1.6
716,0.15
717,-0.84
718,-2.44
719,-3.36
720,-1.3
721,1.91
722,2.21
723,-0.23
724,-1.68
725,1.15
726,5.27
727,5.34
728,1.76
729,-2.06
730,-4.5
731,-4.58
732,-1.98
733,1.3
734,1.53
735,-0.92
736,-1.83
737,-0.84
738,0
739,0.08
740,-1.15
741,-4.35
742,-6.64
743,-5.5
744,-3.89
745,-5.11
746,-6.34
747,-4.27
748,-0.31
749,2.29
750,1.83
751,-1.07
752,-3.51
753,-2.52
754,0.92
755,3.13
756,3.89
757,4.66
758,3.89
759,3.13
760,5.5
761,7.56
762,6.26
763,4.05
764,3.05
765,2.82
766,2.37
767,1.37
768,0.38
769,0
770,-1.3
771,-4.12
772,-5.8
773,-4.27
774,-0.31
775,2.75
776,2.14
777,-0.53
778,-1.37
779,0.08
780,1.6
781,1.37
782,0
783,-0.76
784,-0.84
785,-1.22
786,-2.06
787,-2.06
788,-1.15
789,-0.15
790,0.69
791,1.37
792,1.6
793,0.92
794,-0.31
795,-1.07
796,-1.91
797,-3.82
798,-4.5
799,-2.37
800,-0.08
801,0.46
802,1.3
803,1.83
804,-0.08
805,-1.91
806,-0.38
807,2.29
808,2.75
809,0.61
810,-1.6
811,-2.67
812,-3.97
813,-5.27
814,-4.2
815,-0.69
816,0.84
817,-1.53
818,-4.96
819,-5.11
820,-1.83
821,1.07
822,1.91
823,2.06
824,1.76
825,0.69
826,-0.46
827,-0.92
828,0.31
829,1.15
830,-0.38
831,-2.37
832,-3.05
833,-1.98
834,0.23
835,0.99
836,0.38
837,0.46
838,0.92
839,0.92
840,0.53
841,0
842,0.15
843,0.15
844,-1.6
845,-4.05
846,-4.12
847,-1.83
848,0
849,0.53
850,1.3
851,0.92
852,-1.07
853,-1.22
854,1.22
855,1.76
856,-1.45
857,-4.66
858,-4.5
859,-3.13
860,-3.89
861,-4.66
862,-1.45
863,2.75
864,3.51
865,1.68
866,0.84
867,1.6
868,1.76
869,1.83
870,2.6
871,0.76
872,-3.13
873,-4.66
874,-3.21
875,-1.68
876,-0.99
877,0
878,1.15
879,1.37
880,0.84
881,0.31
882,0.23
883,0.76
884,1.53
885,1.45
886,0.46
887,0.76
888,2.67
889,3.82
890,4.05
891,4.27
892,4.2
893,4.2
894,4.27
895,2.82
896,-0.92
897,-4.73
898,-4.81
899,-1.76
900,0.99
901,2.98
902,4.43
903,4.58
904,3.82
905,3.44
906,2.98
907,2.21
908,1.22
909,0.23
910,0
911,0.53
912,-0.46
913,-4.2
914,-6.87
915,-6.26
916,-5.34
917,-4.05
918,-0.31
919,3.21
920,4.27
921,4.58
922,4.5
923,3.74
924,2.75
925,1.53
926,0.31
927,0.08
928,0.76
929,0.99
930,0.46
931,-0.46
932,-2.44
933,-3.59
934,-1.91
935,0.38
936,1.22
937,1.15
938,0.92
939,0.38
940,-0.46
941,-1.3
942,-0.92
943,0
944,-1.3
945,-3.51
946,-2.67
947,-0.84
948,-0.15
949,2.06
950,4.96
951,5.73
952,4.81
953,3.28
954,1.68
955,0.92
956,0.53
957,0.08
958,0.08
959,0.76
960,-0.31
961,-3.82
962,-5.65
963,-4.35
964,-2.21
965,0.76
966,2.98
967,1.83
968,0
969,0
970,1.22
971,3.82
972,6.56
973,6.03
974,1.83
975,-2.37
976,-4.05
977,-4.27
978,-4.58
979,-4.27
980,-1.98
981,1.37
982,4.05
983,5.04
984,3.13
985,-1.98
986,-6.34
987,-4.96
988,-0.46
989,2.21
990,2.82
991,2.14
992,0.92
993,1.37
994,3.36
995,3.21
996,0.46
997,-2.29
998,-3.66
999,-2.9
1000,-0.38
1001,1.3
1002,-0.15
1003,-3.21
1004,-3.66
1005,-1.07
1006,0.92
1007,1.76
1008,3.28
1009,3.66
1010,1.37
1011,-1.37
1012,-1.98
1013,-0.08
1014,2.06
1015,1.45
1016,-1.76
1017,-4.66
1018,-4.58
1019,-2.6
1020,-0.69
1021,0.38
1022,0.69
1023,1.76
1024,3.51
1025,3.13
1026,0.99
1027,0
1028,-0.23
1029,-1.07
1030,-1.07
1031,0
1032,0.69
1033,0.92
1034,1.3
1035,2.14
1036,3.05
1037,3.44
1038,3.13
1039,1.15
1040,-1.98
1041,-3.51
1042,-3.21
1043,-3.44
1044,-3.51
1045,-1.6
1046,0.61
1047,1.98
1048,2.37
1049,2.9
1050,4.43
1051,4.2
1052,1.22
1053,-1.07
1054,-0.46
1055,2.21
1056,3.66
1057,2.06
1058,-0.46
1059,-1.68
1060,-1.91
1061,-2.9
1062,-3.51
1063,-2.06
1064,0.31
1065,2.37
1066,3.05
1067,1.45
1068,-1.53
1069,-3.89
1070,-4.5
1071,-2.52
1072,2.14
1073,6.79
1074,6.87
1075,3.44
1076,2.14
1077,2.75
1078,1.68
1079,0.15
1080,-0.38
1081,-1.98
1082,-5.04
1083,-7.1
1084,-6.18
1085,-3.05
1086,-0.31
1087,0.92
1088,1.22
1089,0.69
1090,0
1091,0
1092,0.31
1093,0.23
1094,0.53
1095,1.45
1096,2.14
1097,2.14
1098,1.3
1099,0.15
1100,0.15
1101,0.08
1102,-0.23
1103,0.38
1104,1.45
1105,1.98
1106,1.6
1107,0
1108,-1.83
1109,-3.59
1110,-4.66
1111,-3.59
1112,-0.61
1113,1.68
1114,1.91
1115,2.14
1116,2.82
1117,1.98
1118,0.61
1119,0.23
1120,-0.15
1121,-1.07
1122,-1.07
1123,-0.38
1124,0.15
1125,0.92
1126,1.6
1127,2.06
1128,1.91
1129,0.38
1130,-2.14
1131,-2.9
1132,-1.07
1133,0.76
1134,1.15
1135,0.99
1136,1.37
1137,1.91
1138,1.76
1139,1.15
1140,0.84
1141,0
1142,-1.53
1143,-2.21
1144,-2.6
1145,-5.34
1146,-8.32
1147,-7.33
1148,-3.51
1149,-0.15
1150,1.45
1151,0.61
1152,-0.15
1153,2.52
1154,5.73
1155,5.11
1156,3.05
1157,1.83
1158,1.53
1159,1.45
1160,0.15
1161,-2.21
1162,-3.21
1163,-1.98
1164,-0.84
1165,0.46
1166,2.52
1167,2.52
1168,-0.15
1169,-2.21
1170,-1.15
1171,1.53
1172,2.82
1173,2.14
1174,2.06
1175,2.29
1176,0.61
1177,-0.61
1178,1.53
1179,3.66
1180,3.28
1181,2.44
1182,1.3
1183,-0.23
1184,-0.76
1185,-0.46
1186,-0.53
1187,-1.45
1188,-3.36
1189,-4.73
1190,-3.74
1191,-1.53
1192,-1.3
1193,-3.74
1194,-4.96
1195,-2.52
1196,-0.31
1197,-0.84
1198,-1.6
1199,-0.61
1200,0.08
1201,-0.92
1202,-3.13
1203,-5.27
1204,-6.56
1205,-7.33
1206,-8.17
1207,-7.86
1208,-6.87
1209,-7.02
1210,-5.73
1211,-0.92
1212,3.21
1213,3.51
1214,2.75
1215,3.89
1216,5.19
1217,5.73
1218,6.72
1219,6.95
1220,5.27
1221,4.43
1222,5.42
1223,5.04
1224,2.75
1225,0.69
1226,-0.76
1227,-2.9
1228,-5.19
1229,-5.19
1230,-2.21
1231,1.22
1232,3.36
1233,3.66
1234,3.66
1235,3.74
1236,1.68
1237,-2.14
1238,-4.2
1239,-3.97
1240,-3.28
1241,-1.68
1242,-0.23
1243,-0.61
1244,-1.3
1245,-1.3
1246,-1.37
1247,-1.68
1248,-1.91
1249,-1.83
1250,-1.76
1251,-1.22
1252,0.84
1253,2.6
1254,2.21
1255,1.07
1256,0.46
1257,0.69
1258,1.83
1259,1.76
1260,-1.22
1261,-3.44
1262,-1.22
1263,1.53
1264,1.22
1265,-0.08
1266,-0.69
1267,-0.99
1268,-1.07
1269,-0.92
1270,-0.84
1271,-0.38
1272,-0.46
1273,-1.22
1274,-0.69
1275,0.69
1276,0.99
1277,0.46
1278,-0.46
1279,-1.83
1280,-1.6
1281,0.23
1282,0.46
1283,-1.22
1284,-1.91
1285,-1.83
1286,-2.29
1287,-2.67
1288,-2.14
1289,-0.15
1290,1.83
1291,2.6
1292,2.6
1293,2.82
1294,3.05
1295,2.82
1296,1.3
1297,-0.53
1298,-1.3
1299,-2.14
1300,-4.05
1301,-5.11
1302,-3.44
1303,-0.76
1304,-0.08
1305,-1.22
1306,-1.91
1307,-1.91
1308,-0.53
1309,2.29
1310,3.05
1311,0.99
1312,0.15
1313,1.45
1314,2.75
1315,2.29
1316,0.38
1317,-0.99
1318,-2.06
1319,-2.82
1320,-2.06
1321,0
1322,1.37
1323,0
1324,-2.14
1325,-1.6
1326,0.53
1327,0.76
1328,-1.83
1329,-5.73
1330,-7.18
1331,-4.43
1332,-0.53
1333,1.98
1334,2.67
1335,1.22
1336,-0.08
1337,0.08
1338,0.76
1339,2.67
1340,4.58
1341,3.44
1342,0.38
1343,-1.68
1344,-1.45
1345,-0.31
1346,-0.31
1347,-0.46
1348,0.76
1349,0.92
1350,-1.3
1351,-2.9
1352,-1.91
1353,0.69
1354,4.27
1355,6.41
1356,4.89
1357,1.76
1358,1.15
1359,2.44
1360,2.14
1361,0
1362,-1.53
1363,-2.44
1364,-2.9
1365,-0.38
1366,4.27
1367,5.88
1368,2.75
1369,0
1370,0.53
1371,1.07
1372,-0.76
1373,-2.98
1374,-3.66
1375,-3.28
1376,-2.67
1377,-1.37
1378,0.15
1379,1.68
1380,2.6
1381,1.98
1382,0.69
1383,0.46
1384,1.3
1385,1.98
1386,1.15
1387,-0.31
1388,0.46
1389,3.74
1390,4.89
1391,1.37
1392,-3.13
1393,-5.11
1394,-5.34
1395,-5.19
1396,-4.2
1397,-2.37
1398,-0.15
1399,2.14
1400,2.82
1401,0.31
1402,-2.75
1403,-3.13
1404,0.46
1405,4.05
1406,2.98
1407,-0.92
1408,-2.82
1409,-0.84
1410,2.21
1411,2.44
1412,0.08
1413,-1.91
1414,-2.06
1415,-1.3
1416,-0.53
1417,0.69
1418,1.3
1419,-0.23
1420,-1.76
1421,-1.22
1422,0.53
1423,2.37
1424,3.05
1425,2.9
1426,2.6
1427,2.37
1428,0.99
1429,-2.06
1430,-4.96
1431,-5.42
1432,-4.27
1433,-4.2
1434,-4.58
1435,-3.21
1436,-1.3
1437,-0.92
1438,-0.76
1439,1.83
1440,5.19
1441,4.5
1442,1.07
1443,-0.46
1444,-0.38
1445,-0.53
1446,-1.07
1447,-1.45
1448,-1.3
1449,-0.46
1450,0.38
1451,0.76
1452,0.69
1453,0
1454,-1.6
1455,-4.2
1456,-6.79
1457,-7.02
1458,-3.13
1459,2.82
1460,6.41
1461,4.96
1462,0.76
1463,-2.67
1464,-3.28
1465,0
1466,5.27
1467,7.48
1468,5.19
1469,2.29
1470,0.99
1471,-0.15
1472,-0.84
1473,1.3
1474,1.98
1475,-1.3
1476,-3.21
1477,-1.37
1478,0.23
1479,0
1480,-0.84
1481,-1.22
1482,-0.84
1483,0.46
1484,1.6
1485,1.3
1486,0.69
1487,0.61
1488,0.53
1489,0.84
1490,1.22
1491,0.23
1492,-1.53
1493,-2.06
1494,-1.37
1495,-0.38
1496,1.6
1497,4.35
1498,5.5
1499,2.6
1500,-2.6
1501,-5.27
1502,-3.82
1503,-0.99
1504,0.38
1505,0.15
1506,-0.46
1507,-0.69
1508,0
1509,0.61
1510,-0.23
1511,-1.22
1512,-0.76
1513,-0.08
1514,-0.31
1515,-0.38
1516,0.31
1517,1.07
1518,1.53
1519,0.99
1520,-0.61
1521,-2.06
1522,-2.67
1523,-1.68
1524,1.07
1525,1.98
1526,-0.53
1527,-3.21
1528,-3.89
1529,-3.97
1530,-3.21
1531,-0.99
1532,0.53
1533,0.99
1534,1.98
1535,2.67
1536,0.99
1537,-1.68
1538,-2.75
1539,-2.82
1540,-2.9
1541,-2.14
1542,-0.76
1543,0.99
1544,3.59
1545,4.96
1546,2.9
1547,-0.46
1548,-1.3
1549,0
1550,0.53
1551,0.46
1552,0.84
1553,0.76
1554,0
1555,0.15
1556,1.15
1557,0.76
1558,-1.22
1559,-2.67
1560,-2.67
1561,-2.52
1562,-2.6
1563,-1.68
1564,0.08
1565,0.46
1566,-1.6
1567,-3.74
1568,-3.28
1569,0
1570,3.82
1571,3.97
1572,-0.53
1573,-4.73
1574,-4.05
1575,-0.53
1576,1.6
1577,2.21
1578,1.53
1579,0.31
1580,0.23
1581,0
1582,-1.68
1583,-2.75
1584,-2.37
1585,-1.45
1586,-1.68
1587,-2.44
1588,-1.22
1589,1.6
1590,2.67
1591,2.14
1592,2.82
1593,3.59
1594,3.44
1595,2.67
1596,1.83
1597,1.76
1598,1.6
1599,0.61
1600,-0.76
1601,-3.13
1602,-5.34
1603,-3.59
1604,0.69
1605,3.66
1606,4.96
1607,4.73
1608,1.3
1609,-3.36
1610,-4.43
1611,-1.98
1612,-0.38
1613,-0.23
1614,0.46
1615,1.45
1616,2.14
1617,2.75
1618,2.9
1619,2.14
1620,1.37
1621,1.15
1622,0.84
1623,-0.23
1624,-2.67
1625,-4.96
1626,-4.43
1627,-2.6
1628,-2.6
1629,-2.06
1630,0.99
1631,2.9
1632,2.52
1633,3.89
1634,5.95
1635,5.11
1636,2.75
1637,1.45
1638,0.69
1639,0
1640,-0.61
1641,-1.53
1642,-2.67
1643,-3.82
1644,-5.57
1645,-6.95
1646,-4.89
1647,-1.15
1648,-0.61
1649,-3.28
1650,-6.64
1651,-9.39
1652,-10.31
1653,-8.63
1654,-5.57
1655,-2.6
1656,0.99
1657,5.42
1658,8.17
1659,8.7
1660,8.93
1661,9.08
1662,8.7
1663,8.02
1664,6.34
1665,3.74
1666,2.52
1667,2.14
1668,0.61
1669,-1.15
1670,-1.37
1671,-0.99
1672,-1.98
1673,-3.59
1674,-3.13
1675,-0.76
1676,0.38
1677,-0.31
1678,-1.22
1679,-1.3
1680,-1.37
1681,-0.53
1682,1.6
1683,3.05
1684,1.53
1685,-2.37
1686,-4.73
1687,-3.05
1688,0
1689,1.53
1690,1.91
1691,1.91
1692,0.99
1693,-0.46
1694,-2.06
1695,-2.98
1696,-2.29
1697,-0.76
1698,-0.15
1699,-1.07
1700,-2.37
1701,-2.44
1702,-1.3
1703,0
1704,1.15
1705,1.98
1706,1.6
1707,0
1708,-1.45
1709,-1.91
1710,-1.91
1711,-1.53
1712,-0.38
1713,0.99
1714,1.22
1715,-0.15
1716,-1.37
1717,-1.68
1718,-1.98
1719,-1.53
1720,0.23
1721,2.06
1722,2.67
1723,2.14
1724,0.15
1725,-1.83
1726,-2.14
1727,-1.07
1728,-0.15
1729,-0.08
1730,0.23
1731,1.22
1732,1.45
1733,1.15
1734,1.53
1735,1.98
1736,1.3
1737,-1.15
1738,-3.89
1739,-4.5
1740,-2.82
1741,-0.92
1742,-0.92
1743,-2.14
1744,-2.37
1745,-1.22
1746,1.07
1747,3.13
1748,3.51
1749,2.6
1750,1.53
1751,1.22
1752,0.46
1753,-1.37
1754,-2.14
1755,-0.08
1756,2.29
1757,2.6
1758,0.92
1759,-1.37
1760,-4.35
1761,-6.18
1762,-4.81
1763,-0.69
1764,2.52
1765,1.98
1766,-0.53
1767,-1.68
1768,-1.68
1769,-2.06
1770,-1.22
1771,0.53
1772,1.07
1773,1.68
1774,2.98
1775,2.82
1776,1.91
1777,1.76
1778,2.98
1779,4.73
1780,3.89
1781,0.38
1782,-2.21
1783,-2.75
1784,-2.9
1785,-3.89
1786,-4.96
1787,-4.05
1788,-0.31
1789,4.05
1790,6.11
1791,5.65
1792,4.58
1793,3.82
1794,3.89
1795,4.43
1796,3.97
1797,2.37
1798,1.3
1799,2.52
1800,3.74
1801,1.53
1802,-1.98
1803,-4.2
1804,-5.34
1805,-4.89
1806,-2.67
1807,-0.92
1808,-0.69
1809,-1.07
1810,-0.92
1811,0.61
1812,2.75
1813,4.43
1814,5.04
1815,4.2
1816,3.36
1817,2.6
1818,0
1819,-4.35
1820,-7.1
1821,-6.56
1822,-3.89
1823,-0.76
1824,1.15
1825,1.15
1826,1.37
1827,3.28
1828,5.11
1829,5.34
1830,4.66
1831,3.66
1832,1.45
1833,-1.68
1834,-3.44
1835,-3.51
1836,-3.28
1837,-1.76
1838,1.45
1839,3.74
1840,2.44
1841,0
1842,-0.53
1843,0
1844,0
1845,-0.46
1846,-0.92
1847,0.15
1848,2.37
1849,2.98
1850,1.3
1851,-1.98
1852,-5.27
1853,-5.11
1854,-1.83
1855,0.53
1856,0.08
1857,-1.6
1858,-2.37
1859,-2.29
1860,-1.15
1861,0.99
1862,1.37
1863,0
1864,-0.84
1865,-1.68
1866,-1.45
1867,1.91
1868,4.58
1869,2.9
1870,0.15
1871,-0.84
1872,-1.6
1873,-2.6
1874,-1.83
1875,0.38
1876,1.68
1877,1.6
1878,0.99
1879,0.38
1880,1.22
1881,3.82
1882,5.04
1883,2.37
1884,-1.83
1885,-3.82
1886,-4.2
1887,-5.04
1888,-5.73
1889,-4.96
1890,-3.44
1891,-0.99
1892,1.53
1893,1.98
1894,1.98
1895,4.27
1896,6.11
1897,4.12
1898,0.61
1899,0.46
1900,3.66
1901,5.19
1902,2.37
1903,-2.9
1904,-6.79
1905,-6.56
1906,-3.44
1907,-0.61
1908,0.76
1909,0.84
1910,-0.15
1911,-0.84
1912,-0.76
1913,-0.84
1914,-0.53
1915,1.37
1916,3.59
1917,4.73
1918,5.27
1919,4.43
1920,0.99
1921,-3.59
1922,-5.04
1923,-2.52
1924,-0.46
1925,-0.08
1926,0.53
1927,1.22
1928,0.61
1929,-1.15
1930,-2.06
1931,-0.69
1932,0.46
1933,0.69
1934,2.29
1935,3.66
1936,2.14
1937,0.38
1938,0.08
1939,-0.92
1940,-2.37
1941,-2.44
1942,-1.76
1943,-0.15
1944,2.6
1945,3.89
1946,0.92
1947,-3.66
1948,-5.73
1949,-4.96
1950,-1.53
1951,2.21
1952,2.37
1953,0.61
1954,0.53
1955,0.76
1956,-0.99
1957,-3.28
1958,-3.89
1959,-2.98
1960,-0.61
1961,2.29
1962,3.66
1963,3.13
1964,2.44
1965,1.37
1966,-0.69
1967,-2.06
1968,-1.15
1969,0.31
1970,0.31
1971,-0.84
1972,-1.68
1973,-2.21
1974,-2.9
1975,-1.76
1976,1.3
1977,3.74
1978,3.51
1979,0.76
1980,-0.92
1981,0.31
1982,1.83
1983,1.68
1984,1.68
1985,2.52
1986,1.83
1987,-1.15
1988,-4.43
1989,-6.41
1990,-5.88
1991,-3.21
1992,-0.99
1993,-0.08
1994,0
1995,-0.84
1996,-1.83
1997,-1.07
1998,0.99
1999,3.51
2000,4.2
2001,1.83
2002,0.23
2003,0.61
2004,0.15
2005,-1.3
2006,-2.29
2007,-1.91
2008,-0.23
2009,0.92
2010,0.99
2011,0.76
2012,0.15
2013,-0.84
2014,-0.46
2015,1.76
2016,3.74
2017,4.35
2018,5.88
2019,7.48
2020,5.19
2021,0.46
2022,-1.91
2023,-1.15
2024,0.61
2025,0.76
2026,-0.53
2027,-1.83
2028,-1.6
2029,0.23
2030,1.45
2031,0.08
2032,-1.83
2033,-1.68
2034,-0.31
2035,0.99
2036,2.75
2037,4.66
2038,5.04
2039,2.37
2040,-1.53
2041,-2.52
2042,-0.92
2043,-1.07
2044,-3.82
2045,-5.19
2046,-2.44
2047,2.52
2048,5.34
2049,3.97
2050,0.15
2051,-3.05
2052,-4.35
2053,-4.12
2054,-3.66
2055,-2.75
2056,0.46
2057,3.82
2058,3.28
2059,-0.31
2060,-3.13
2061,-3.59
2062,-3.59
2063,-3.66
2064,-2.82
2065,-1.37
2066,-0.23
2067,-0.08
2068,-0.46
2069,-0.38
2070,-0.84
2071,-2.44
2072,-2.82
2073,0.76
2074,5.65
2075,7.48
2076,6.79
2077,5.27
2078,4.05
2079,3.97
2080,4.66
2081,5.57
2082,6.34
2083,4.81
2084,1.3
2085,-1.91
2086,-4.5
2087,-5.42
2088,-4.58
2089,-3.13
2090,-0.92
2091,0.99
2092,0.46
2093,-1.76
2094,-2.52
2095,-1.83
2096,-1.91
2097,-2.21
2098,-1.15
2099,0.84
2100,2.52
2101,1.91
2102,-0.69
2103,-2.44
2104,-2.82
2105,-2.6
2106,0.15
2107,5.88
2108,8.93
2109,4.73
2110,-2.67
2111,-6.56
2112,-5.88
2113,-3.59
2114,-1.76
2115,-0.31
2116,0.69
2117,2.06
2118,4.58
2119,5.8
2120,3.74
2121,0.08
2122,-3.82
2123,-5.88
2124,-4.58
2125,-2.67
2126,-2.98
2127,-4.5
2128,-4.35
2129,-1.91
2130,0.69
2131,2.06
2132,2.82
2133,3.44
2134,3.74
2135,3.36
2136,2.37
2137,1.07
2138,0.69
2139,2.75
2140,4.5
2141,2.29
2142,-1.45
2143,-2.52
2144,-2.21
2145,-2.6
2146,-2.75
2147,-2.06
2148,-1.07
2149,0
2150,0.61
2151,1.22
2152,1.76
2153,1.76
2154,1.91
2155,1.68
2156,0.15
2157,-0.69
2158,0.69
2159,2.44
2160,1.3
2161,-1.76
2162,-2.98
2163,-1.22
2164,1.15
2165,1.37
2166,-0.61
2167,-2.29
2168,-2.67
2169,-2.14
2170,-0.99
2171,0.23
2172,0.84
2173,-0.08
2174,-2.06
2175,-2.67
2176,-1.83
2177,-1.53
2178,-2.6
2179,-2.29
2180,0.53
2181,1.68
2182,-0.69
2183,-2.44
2184,-0.99
2185,1.37
2186,2.67
2187,1.91
2188,0.23
2189,-0.46
2190,-1.53
2191,-3.21
2192,-2.9
2193,0
2194,3.21
2195,4.27
2196,2.37
2197,0.23
2198,0.15
2199,0.92
2200,1.6
2201,1.98
2202,1.15
2203,-0.38
2204,-0.38
2205,0.99
2206,1.83
2207,2.6
2208,5.04
2209,6.34
2210,2.67
2211,-1.83
2212,-1.53
2213,2.06
2214,4.43
2215,4.35
2216,3.51
2217,2.21
2218,0.08
2219,-1.76
2220,-0.84
2221,1.98
2222,2.52
2223,0.61
2224,0.15
2225,0.69
2226,-0.15
2227,-0.38
2228,0.99
2229,0.84
2230,-1.45
2231,-2.37
2232,-0.69
2233,0
2234,-1.45
2235,-1.07
2236,2.06
2237,4.96
2238,5.19
2239,2.52
2240,-0.76
2241,-1.98
2242,-1.91
2243,-1.98
2244,-1.91
2245,-1.45
2246,-0.84
2247,0
2248,-0.46
2249,-2.82
2250,-3.74
2251,-1.98
2252,-0.53
2253,-0.76
2254,-1.07
2255,0.15
2256,3.36
2257,6.87
2258,6.95
2259,2.75
2260,-2.21
2261,-5.04
2262,-4.27
2263,-0.08
2264,3.05
2265,1.53
2266,-1.37
2267,-1.91
2268,-1.07
2269,-1.15
2270,-0.84
2271,1.07
2272,2.75
2273,3.13
2274,3.28
2275,1.98
2276,-0.23
2277,-0.69
2278,-0.61
2279,-2.37
2280,-3.05
2281,-0.46
2282,0.69
2283,-1.15
2284,-2.75
2285,-1.98
2286,-0.76
2287,-0.99
2288,-0.38
2289,2.52
2290,4.2
2291,2.6
2292,0.69
2293,0.61
2294,1.53
2295,1.98
2296,2.44
2297,3.89
2298,4.81
2299,2.9
2300,-0.15
2301,-1.98
2302,-2.75
2303,-3.28
2304,-3.97
2305,-4.66
2306,-3.21
2307,0.31
2308,2.37
2309,1.45
2310,-0.08
2311,-0.61
2312,0.46
2313,2.29
2314,2.9
2315,3.36
2316,4.58
2317,2.82
2318,-2.37
2319,-5.65
2320,-4.58
2321,-2.06
2322,0.23
2323,1.91
2324,1.3
2325,-2.21
2326,-4.27
2327,-0.69
2328,4.96
2329,6.64
2330,5.11
2331,4.58
2332,4.66
2333,1.37
2334,-3.51
2335,-5.5
2336,-4.2
2337,-2.06
2338,-0.61
2339,-1.22
2340,-3.13
2341,-3.05
2342,-0.84
2343,0
2344,-1.07
2345,-1.07
2346,1.68
2347,5.5
2348,5.8
2349,2.6
2350,-0.15
2351,-0.69
2352,0.84
2353,2.52
2354,1.83
2355,-0.61
2356,-2.82
2357,-3.97
2358,-4.12
2359,-2.9
2360,0
2361,2.6
2362,2.75
2363,0.92
2364,-0.38
2365,-0.15
2366,0.31
2367,0
2368,-0.76
2369,-0.31
2370,2.44
2371,5.19
2372,4.43
2373,1.07
2374,-1.37
2375,-1.91
2376,-2.14
2377,-3.59
2378,-3.89
2379,-0.99
2380,1.6
2381,1.76
2382,0.53
2383,-1.6
2384,-3.66
2385,-1.37
2386,4.12
2387,6.34
2388,3.66
2389,1.15
2390,1.3
2391,2.29
2392,1.53
2393,-0.69
2394,-2.98
2395,-4.35
2396,-4.5
2397,-3.28
2398,-0.69
2399,2.29
2400,2.98
2401,-0.23
2402,-4.2
2403,-3.66
2404,-0.38
2405,1.6
2406,3.28
2407,5.27
2408,4.96
2409,1.98
2410,-1.53
2411,-2.98
2412,-1.45
2413,0.76
2414,1.6
2415,0.23
2416,-1.83
2417,-2.37
2418,-1.3
2419,-0.46
2420,0
2421,0.76
2422,1.68
2423,2.06
2424,2.29
2425,3.28
2426,3.74
2427,1.22
2428,-2.67
2429,-4.05
2430,-1.53
2431,1.15
2432,1.53
2433,0.92
2434,0.23
2435,-1.07
2436,-3.05
2437,-3.89
2438,-2.98
2439,-2.37
2440,-2.98
2441,-3.05
2442,-1.6
2443,0.46
2444,2.14
2445,2.6
2446,1.91
2447,1.15
2448,0.53
2449,-0.69
2450,-2.37
2451,-2.52
2452,-0.84
2453,2.37
2454,4.43
2455,2.29
2456,-1.76
2457,-3.89
2458,-3.36
2459,-2.06
2460,-0.84
2461,0.84
2462,2.37
2463,3.36
2464,4.96
2465,6.64
2466,6.87
2467,5.65
2468,2.67
2469,-2.29
2470,-5.11
2471,-3.28
2472,-1.07
2473,-0.76
2474,-1.83
2475,-3.44
2476,-3.51
2477,-1.53
2478,0.15
2479,0.08
2480,-0.31
2481,0
2482,0.38
2483,0.61
2484,1.07
2485,2.06
2486,2.82
2487,3.13
2488,3.89
2489,4.89
2490,2.98
2491,-2.06
2492,-4.35
2493,-2.37
2494,-1.22
2495,-3.82
2496,-6.95
2497,-6.11
2498,-2.14
2499,0
2500,-0.69
2501,-1.91
2502,-2.75
2503,-2.82
2504,-1.53
2505,-0.53
2506,-1.53
2507,-4.12
2508,-7.33
2509,-8.63
2510,-6.26
2511,-1.76
2512,1.3
2513,2.52
2514,4.43
2515,6.64
2516,6.95
2517,7.4
2518,8.09
2519,6.64
2520,4.27
2521,3.74
2522,4.66
2523,4.81
2524,3.21
2525,1.22
2526,0
2527,-1.15
2528,-2.21
2529,-1.6
2530,1.15
2531,2.14
2532,-0.53
2533,-3.44
2534,-4.5
2535,-4.66
2536,-4.05
2537,-2.37
2538,-0.15
2539,1.76
2540,3.21
2541,3.89
2542,3.05
2543,0.46
2544,-1.76
2545,-1.53
2546,-0.46
2547,-1.15
2548,-1.15
2549,1.37
2550,3.44
2551,2.6
2552,0.76
2553,-0.46
2554,-1.22
2555,-2.37
2556,-3.82
2557,-3.74
2558,-1.15
2559,0.53
2560,-0.15
2561,-0.46
2562,1.15
2563,2.75
2564,2.67
2565,1.37
2566,-0.23
2567,-1.83
2568,-1.83
2569,-0.23
2570,-0.08
2571,-1.45
2572,-2.06
2573,-1.15
2574,0.92
2575,1.37
2576,-1.07
2577,-3.21
2578,-3.05
2579,-0.99
2580,1.91
2581,4.43
2582,5.11
2583,3.97
2584,2.37
2585,1.37
2586,0.61
2587,-1.3
2588,-3.05
2589,-3.13
2590,-3.36
2591,-3.66
2592,-2.67
2593,-1.15
2594,-0.99
2595,-1.98
2596,-2.67
2597,-1.76
2598,0.92
2599,3.36
2600,3.28
2601,1.53
2602,0.76
2603,2.06
2604,2.6
2605,0.15
2606,-2.06
2607,-1.91
2608,-1.22
2609,-1.22
2610,-1.37
2611,-2.52
2612,-4.43
2613,-4.35
2614,-2.14
2615,-0.53
2616,0.38
2617,0.99
2618,0.69
2619,0.08
2620,0.23
2621,1.3
2622,2.67
2623,1.91
2624,-1.53
2625,-4.35
2626,-5.19
2627,-5.57
2628,-4.2
2629,-0.76
2630,1.3
2631,1.45
2632,1.53
2633,1.07
2634,-0.46
2635,-2.37
2636,-2.6
2637,-0.76
2638,1.98
2639,4.35
2640,4.66
2641,4.12
2642,5.04
2643,5.19
2644,2.6
2645,0.15
2646,-0.38
2647,0.31
2648,0.69
2649,-1.37
2650,-4.12
2651,-4.12
2652,-2.44
2653,-0.99
2654,1.07
2655,3.28
2656,4.27
2657,3.74
2658,2.9
2659,2.82
2660,2.82
2661,2.6
2662,2.98
2663,3.97
2664,4.73
2665,3.66
2666,1.3
2667,-1.15
2668,-3.05
2669,-3.05
2670,-2.21
2671,-2.29
2672,-2.52
2673,-1.6
2674,-0.08
2675,0.99
2676,0.76
2677,-0.76
2678,-2.44
2679,-2.6
2680,-1.15
2681,0.15
2682,1.91
2683,4.89
2684,6.49
2685,4.89
2686,2.21
2687,0.53
2688,0
2689,0.46
2690,0.53
2691,-0.53
2692,-1.91
2693,-2.52
2694,-1.6
2695,-0.84
2696,-2.06
2697,-3.05
2698,-1.83
2699,0.31
2700,2.52
2701,4.58
2702,5.88
2703,4.73
2704,1.3
2705,-1.53
2706,-2.75
2707,-2.14
2708,0.23
2709,2.29
2710,2.75
2711,2.21
2712,0.99
2713,-0.15
2714,-1.22
2715,-2.75
2716,-3.59
2717,-2.82
2718,-1.3
2719,0.46
2720,2.06
2721,2.52
2722,2.52
2723,2.37
2724,0.92
2725,-0.69
2726,-0.69
2727,0.46
2728,0.76
2729,-0.08
2730,-1.45
2731,-2.52
2732,-1.37
2733,1.83
2734,2.75
2735,-0.15
2736,-1.91
2737,-0.76
2738,0.84
2739,0.84
2740,-1.15
2741,-2.52
2742,-1.22
2743,-0.23
2744,-0.31
2745,0.69
2746,1.68
2747,1.22
2748,0.76
2749,0.61
2750,0.23
2751,0.46
2752,0.99
2753,0.46
2754,-0.46
2755,0.23
2756,2.52
2757,2.82
2758,-1.07
2759,-5.65
2760,-5.73
2761,-1.98
2762,1.22
2763,2.44
2764,2.21
2765,0.46
2766,-1.98
2767,-2.82
2768,-2.21
2769,-0.61
2770,1.83
2771,3.05
2772,2.52
2773,2.21
2774,2.6
2775,2.21
2776,0.69
2777,-0.31
2778,-0.53
2779,-0.31
2780,0.69
2781,2.82
2782,2.44
2783,-1.76
2784,-4.35
2785,-1.91
2786,0.92
2787,1.15
2788,0.15
2789,-1.22
2790,-1.83
2791,0.08
2792,2.37
2793,2.21
2794,0.08
2795,-1.6
2796,-1.45
2797,-0.76
2798,-2.06
2799,-3.82
2800,-3.13
2801,-0.69
2802,1.45
2803,2.06
2804,0.15
2805,-2.67
2806,-3.44
2807,-1.68
2808,0.23
2809,0.53
2810,-0.15
2811,0
2812,0.99
2813,1.3
2814,0.84
2815,0.23
2816,-1.07
2817,-1.98
2818,-0.99
2819,0
2820,0.15
2821,0.38
2822,0
2823,-0.46
2824,0.61
2825,1.15
2826,-0.61
2827,-1.68
2828,0
2829,1.6
2830,0.61
2831,-0.92
2832,0.08
2833,2.98
2834,4.73
2835,2.98
2836,-1.37
2837,-4.43
2838,-3.44
2839,-1.6
2840,-1.6
2841,-0.46
2842,2.9
2843,5.42
2844,5.11
2845,2.75
2846,0.61
2847,0
2848,0.15
2849,0.76
2850,0.76
2851,-0.15
2852,-1.37
2853,-2.14
2854,-2.52
2855,-2.14
2856,-0.92
2857,-0.46
2858,-1.91
2859,-3.21
2860,-2.37
2861,0.53
2862,3.36
2863,4.12
2864,2.9
2865,1.22
2866,0.69
2867,0.84
2868,0.31
2869,-0.92
2870,-2.37
2871,-3.59
2872,-4.27
2873,-3.36
2874,-0.53
2875,1.98
2876,1.91
2877,-0.69
2878,-3.44
2879,-3.74
2880,-1.98
2881,-0.15
2882,1.6
2883,2.98
2884,2.06
2885,0.23
2886,-0.46
2887,-1.53
2888,-2.98
2889,-3.44
2890,-3.28
2891,-2.9
2892,-1.22
2893,0.84
2894,2.06
2895,1.91
2896,0.08
2897,-2.37
2898,-1.91
2899,1.22
2900,2.98
2901,1.6
2902,-0.61
2903,-1.6
2904,-1.45
2905,-1.07
2906,-0.15
2907,0.53
2908,-0.61
2909,-3.51
2910,-4.58
2911,-3.21
2912,-1.45
2913,0.31
2914,2.75
2915,4.2
2916,2.75
2917,0
2918,-1.45
2919,-1.68
2920,-0.76
2921,0.38
2922,1.07
2923,1.91
2924,2.21
2925,1.15
2926,0.46
2927,0
2928,-1.45
2929,-2.9
2930,-2.6
2931,-0.69
2932,0.31
2933,0.15
2934,1.07
2935,3.74
2936,5.88
2937,5.42
2938,3.59
2939,1.76
2940,0.76
2941,1.22
2942,0.84
2943,-2.21
2944,-3.59
2945,-0.53
2946,3.66
2947,5.8
2948,4.73
2949,2.67
2950,1.68
2951,0.53
2952,-0.92
2953,-0.99
2954,-0.84
2955,-0.99
2956,-0.08
2957,1.22
2958,1.3
2959,-0.15
2960,-2.9
2961,-5.42
2962,-6.41
2963,-4.89
2964,-1.45
2965,2.14
2966,4.89
2967,5.88
2968,4.5
2969,2.14
2970,0.61
2971,0.23
2972,1.07
2973,1.07
2974,-1.3
2975,-3.66
2976,-2.82
2977,-0.84
2978,-1.22
2979,-2.75
2980,-3.21
2981,-2.9
2982,-2.29
2983,-2.29
2984,-2.37
2985,-0.23
2986,3.59
2987,6.18
2988,6.03
2989,3.21
2990,0.69
2991,0
2992,-1.76
2993,-5.8
2994,-9.85
2995,-11.53
2996,-10.08
2997,-7.02
2998,-4.81
2999,-3.82
3000,-3.74
3001,-4.43
3002,-4.81
3003,-3.44
3004,-1.53
3005,-0.08
3006,0.61
3007,0.46
3008,1.98
3009,6.72
3010,10.76
3011,10.99
3012,9.31
3013,7.79
3014,6.95
3015,5.42
3016,1.45
3017,-1.83
3018,-1.45
3019,-0.08
3020,-0.61
3021,-2.06
3022,-1.6
3023,-0.61
3024,-3.44
3025,-7.02
3026,-4.43
3027,2.98
3028,8.32
3029,8.7
3030,5.5
3031,1.22
3032,-1.91
3033,-2.44
3034,-1.91
3035,-3.21
3036,-3.97
3037,-0.61
3038,4.05
3039,4.81
3040,1.07
3041,-3.44
3042,-5.27
3043,-4.05
3044,-1.76
3045,0.61
3046,1.68
3047,-1.37
3048,-5.57
3049,-3.36
3050,3.51
3051,6.41
3052,4.35
3053,2.6
3054,2.14
3055,0.99
3056,-0.38
3057,-0.92
3058,-1.83
3059,-2.82
3060,-3.05
3061,-2.82
3062,-2.14
3063,-1.22
3064,-1.91
3065,-3.89
3066,-3.13
3067,0.92
3068,1.53
3069,-1.53
3070,-0.38
3071,3.66
3072,3.82
3073,0.92
3074,0.61
3075,3.66
3076,4.81
3077,1.83
3078,-2.14
3079,-4.58
3080,-5.04
3081,-4.12
3082,-2.9
3083,-1.3
3084,0.38
3085,1.15
3086,0.46
3087,0.31
3088,0.99
3089,1.76
3090,2.37
3091,2.21
3092,1.3
3093,0.84
3094,1.3
3095,1.76
3096,0.99
3097,-1.15
3098,-3.28
3099,-3.74
3100,-2.44
3101,-0.76
3102,-1.07
3103,-4.43
3104,-7.79
3105,-7.33
3106,-2.29
3107,5.27
3108,10.76
3109,9.54
3110,3.51
3111,-2.29
3112,-4.73
3113,-3.51
3114,-1.3
3115,-0.76
3116,-0.92
3117,-0.76
3118,-1.98
3119,-4.12
3120,-4.43
3121,-2.75
3122,-0.53
3123,1.15
3124,1.45
3125,0.53
3126,-0.15
3127,-0.08
3128,0
3129,-0.08
3130,0.15
3131,0.76
3132,2.29
3133,5.04
3134,5.57
3135,2.29
3136,-1.68
3137,-3.28
3138,-1.3
3139,2.21
3140,3.51
3141,2.14
3142,0.53
3143,-0.23
3144,-0.61
3145,0.08
3146,2.14
3147,3.51
3148,2.75
3149,1.6
3150,2.6
3151,4.81
3152,5.04
3153,2.44
3154,-0.38
3155,-0.31
3156,2.06
3157,2.9
3158,0.92
3159,-0.23
3160,0.61
3161,1.3
3162,0.76
3163,0
3164,0.15
3165,1.83
3166,2.82
3167,2.6
3168,2.52
3169,1.15
3170,-2.52
3171,-4.35
3172,-1.83
3173,1.3
3174,2.14
3175,1.68
3176,0.53
3177,-1.98
3178,-3.66
3179,-1.98
3180,0.84
3181,1.91
3182,0.76
3183,-1.3
3184,-3.05
3185,-4.73
3186,-5.65
3187,-3.74
3188,0.23
3189,4.27
3190,6.56
3191,5.95
3192,3.97
3193,0.99
3194,-2.37
3195,-1.83
3196,2.21
3197,2.37
3198,-2.21
3199,-5.57
3200,-6.26
3201,-6.41
3202,-5.34
3203,-1.15
3204,3.74
3205,5.19
3206,3.44
3207,1.15
3208,0
3209,0.69
3210,2.44
3211,2.98
3212,1.98
3213,1.22
3214,1.3
3215,1.07
3216,-0.31
3217,-2.98
3218,-4.89
3219,-4.05
3220,-1.22
3221,0.84
3222,1.6
3223,1.53
3224,0.92
3225,0.69
3226,1.6
3227,2.82
3228,2.67
3229,0.99
3230,0
3231,0.53
3232,0.69
3233,-1.15
3234,-2.6
3235,-1.07
3236,0.92
3237,0.61
3238,-1.45
3239,-2.75
3240,-1.3
3241,1.91
3242,4.05
3243,4.35
3244,2.67
3245,0
3246,-1.15
3247,-1.53
3248,-2.29
3249,-1.22
3250,1.98
3251,4.35
3252,3.28
3253,-0.31
3254,-2.98
3255,-2.44
3256,-0.23
3257,1.83
3258,2.82
3259,1.53
3260,-1.15
3261,-2.75
3262,-1.91
3263,-0.46
3264,-1.15
3265,-4.12
3266,-5.5
3267,-2.98
3268,-0.15
3269,1.37
3270,3.66
3271,6.03
3272,6.41
3273,5.42
3274,4.05
3275,1.98
3276,-0.61
3277,-3.13
3278,-4.58
3279,-5.11
3280,-5.73
3281,-5.34
3282,-2.52
3283,0.15
3284,0.69
3285,0
3286,-0.53
3287,-0.46
3288,0.08
3289,1.53
3290,3.51
3291,4.12
3292,2.75
3293,1.83
3294,2.98
3295,4.12
3296,2.14
3297,-1.68
3298,-3.05
3299,-1.98
3300,-1.68
3301,-2.29
3302,-2.37
3303,-1.6
3304,-0.69
3305,-1.15
3306,-2.37
3307,-2.29
3308,-0.61
3309,0.53
3310,1.53
3311,3.59
3312,5.19
3313,4.58
3314,2.44
3315,-0.92
3316,-4.05
3317,-3.21
3318,-0.76
3319,-0.46
3320,-0.99
3321,-0.84
3322,-0.53
3323,0
3324,0.46
3325,-0.46
3326,-2.06
3327,-3.21
3328,-3.05
3329,-0.53
3330,3.13
3331,6.03
3332,6.95
3333,5.27
3334,1.22
3335,-2.98
3336,-4.66
3337,-4.2
3338,-3.13
3339,-0.99
3340,1.07
3341,1.37
3342,1.22
3343,0.84
3344,-0.31
3345,-0.61
3346,0.69
3347,2.29
3348,1.53
3349,-1.83
3350,-3.66
3351,-1.6
3352,-0.46
3353,-2.14
3354,-2.98
3355,-2.21
3356,-0.92
3357,0.76
3358,2.06
3359,2.21
3360,1.45
3361,0
3362,-0.84
3363,0.76
3364,4.43
3365,6.49
3366,5.04
3367,1.15
3368,-2.29
3369,-3.51
3370,-4.2
3371,-5.88
3372,-5.04
3373,-0.15
3374,2.67
3375,0.31
3376,-3.05
3377,-3.44
3378,-1.76
3379,0
3380,1.98
3381,3.74
3382,3.59
3383,2.29
3384,0.76
3385,-1.3
3386,-3.28
3387,-3.36
3388,-1.91
3389,-0.76
3390,-0.69
3391,-1.37
3392,-2.29
3393,-2.06
3394,0.53
3395,3.59
3396,2.9
3397,-0.15
3398,-1.6
3399,-1.45
3400,-1.6
3401,-1.45
3402,-0.92
3403,-0.99
3404,-1.3
3405,-0.76
3406,-0.92
3407,-1.22
3408,1.15
3409,3.21
3410,0.99
3411,-2.9
3412,-5.04
3413,-4.35
3414,-1.37
3415,1.22
3416,1.6
3417,1.15
3418,1.45
3419,1.76
3420,1.22
3421,-0.08
3422,-1.91
3423,-3.59
3424,-4.27
3425,-3.36
3426,-1.3
3427,0.46
3428,2.29
3429,3.66
3430,3.13
3431,1.15
3432,0.31
3433,0.23
3434,-1.22
3435,-3.05
3436,-2.14
3437,1.6
3438,4.73
3439,5.19
3440,4.12
3441,2.67
3442,0.61
3443,-1.91
3444,-3.28
3445,-2.29
3446,-1.53
3447,-2.52
3448,-3.28
3449,-2.37
3450,-0.92
3451,0.15
3452,1.76
3453,3.13
3454,3.59
3455,3.05
3456,1.53
3457,-0.61
3458,-2.29
3459,-1.98
3460,1.22
3461,5.04
3462,5.04
3463,2.14
3464,-0.99
3465,-3.66
3466,-5.57
3467,-5.95
3468,-3.89
3469,-0.31
3470,1.83
3471,1.3
3472,0
3473,0.61
3474,3.74
3475,6.34
3476,5.57
3477,2.98
3478,0.69
3479,-0.76
3480,-0.31
3481,0.99
3482,1.07
3483,0.15
3484,-0.38
3485,-1.22
3486,-3.51
3487,-5.73
3488,-5.04
3489,-3.13
3490,-3.13
3491,-4.66
3492,-5.95
3493,-5.65
3494,-4.96
3495,-5.34
3496,-4.89
3497,-2.9
3498,-1.98
3499,-2.52
3500,-1.15
3501,2.67
3502,5.5
3503,4.12
3504,1.45
3505,2.14
3506,5.57
3507,7.18
3508,5.34
3509,2.6
3510,0.38
3511,-0.38
3512,0.38
3513,0.76
3514,0.61
3515,1.22
3516,1.91
3517,1.83
3518,1.22
3519,0.31
3520,-0.15
3521,0
3522,0.15
3523,0.23
3524,0.08
3525,-0.92
3526,-1.91
3527,-2.06
3528,-2.14
3529,-2.29
3530,-1.83
3531,-0.53
3532,0.38
3533,-1.53
3534,-4.66
3535,-4.35
3536,-1.15
3537,1.37
3538,1.76
3539,0.38
3540,-0.84
3541,-0.92
3542,-0.53
3543,0
3544,0.76
3545,0.69
3546,-0.15
3547,-0.31
3548,0.46
3549,1.22
3550,1.45
3551,1.22
3552,0.61
3553,-0.31
3554,-0.23
3555,2.06
3556,3.89
3557,2.21
3558,-1.68
3559,-4.27
3560,-3.82
3561,-1.83
3562,-1.07
3563,-1.15
3564,-0.15
3565,1.3
3566,2.37
3567,3.44
3568,3.74
3569,2.6
3570,2.06
3571,2.75
3572,1.68
3573,-2.52
3574,-6.64
3575,-6.87
3576,-4.35
3577,-2.21
3578,-0.84
3579,-0.53
3580,-0.92
3581,-1.07
3582,-1.45
3583,-1.22
3584,0.69
3585,2.98
3586,3.82
3587,2.98
3588,0.76
3589,-0.61
3590,-0.15
3591,-0.61
3592,-3.28
3593,-5.11
3594,-4.73
3595,-3.36
3596,-1.22
3597,0.53
3598,-0.46
3599,-3.59
3600,-5.04
3601,-3.82
3602,-0.46
3603,3.44
3604,4.81
3605,3.89
3606,3.82
3607,3.74
3608,1.45
3609,-0.69
3610,-0.08
3611,0.69
3612,-0.99
3613,-1.91
3614,-0.92
3615,-1.98
3616,-5.19
3617,-6.49
3618,-4.73
3619,-1.15
3620,1.22
3621,1.37
3622,1.98
3623,4.73
3624,5.65
3625,2.21
3626,-0.99
3627,0.46
3628,3.66
3629,3.05
3630,0.08
3631,-1.3
3632,-1.22
3633,-0.76
3634,-0.15
3635,0
3636,0.84
3637,2.6
3638,3.74
3639,4.05
3640,3.82
3641,3.36
3642,2.44
3643,1.37
3644,0.38
3645,-1.07
3646,-2.14
3647,-1.07
3648,1.53
3649,4.2
3650,5.5
3651,2.37
3652,-2.75
3653,-3.21
3654,0.23
3655,0.76
3656,-2.82
3657,-5.65
3658,-4.73
3659,-1.91
3660,0.23
3661,1.83
3662,3.21
3663,3.82
3664,3.44
3665,2.37
3666,1.07
3667,0.61
3668,1.22
3669,1.22
3670,0.15
3671,0.99
3672,2.82
3673,1.07
3674,-2.52
3675,-3.36
3676,-1.91
3677,-1.15
3678,-0.76
3679,0.76
3680,2.52
3681,2.6
3682,1.45
3683,0.61
3684,0.84
3685,1.37
3686,-0.15
3687,-3.66
3688,-6.49
3689,-5.95
3690,-1.37
3691,3.28
3692,4.5
3693,4.05
3694,4.05
3695,3.59
3696,1.68
3697,-1.3
3698,-4.73
3699,-5.65
3700,-3.74
3701,-2.67
3702,-3.21
3703,-2.37
3704,0.76
3705,4.5
3706,4.96
3707,2.14
3708,0.53
3709,0.92
3710,0.99
3711,0.76
3712,0.46
3713,0
3714,-0.23
3715,0.31
3716,0.31
3717,-1.68
3718,-3.82
3719,-3.59
3720,-1.15
3721,1.22
3722,2.21
3723,1.91
3724,0.92
3725,-0.15
3726,-0.31
3727,0.46
3728,0.84
3729,0.31
3730,0.31
3731,1.91
3732,4.05
3733,4.35
3734,1.07
3735,-2.9
3736,-4.66
3737,-4.43
3738,-3.28
3739,-2.29
3740,-2.75
3741,-3.13
3742,-2.67
3743,-1.68
3744,1.45
3745,5.11
3746,4.27
3747,0.76
3748,-0.38
3749,-0.31
3750,-1.68
3751,-2.06
3752,0.69
3753,3.66
3754,4.05
3755,2.82
3756,2.44
3757,2.75
3758,1.68
3759,-0.23
3760,-1.6
3761,-1.98
3762,-1.15
3763,-1.07
3764,-3.82
3765,-6.56
3766,-6.41
3767,-4.2
3768,-1.76
3769,0.46
3770,2.9
3771,4.12
3772,3.82
3773,3.97
3774,4.12
3775,2.6
3776,-0.08
3777,-2.75
3778,-3.59
3779,-1.45
3780,1.76
3781,3.51
3782,3.28
3783,2.21
3784,0.69
3785,-1.22
3786,-3.21
3787,-3.51
3788,-1.6
3789,0
3790,0
3791,-0.38
3792,-0.46
3793,-1.15
3794,-2.06
3795,-1.53
3796,0
3797,1.3
3798,2.21
3799,2.21
3800,1.68
3801,0.15
3802,-1.83
3803,-1.76
3804,0.69
3805,2.75
3806,2.6
3807,0.46
3808,-1.98
3809,-3.13
3810,-2.75
3811,-0.46
3812,2.37
3813,2.37
3814,-0.08
3815,-0.61
3816,1.37
3817,3.28
3818,3.51
3819,2.29
3820,0.23
3821,-2.06
3822,-3.59
3823,-2.6
3824,-0.08
3825,1.07
3826,0.84
3827,0.38
3828,-0.31
3829,0.15
3830,2.44
3831,3.13
3832,0.92
3833,-0.31
3834,1.07
3835,2.06
3836,1.22
3837,0.76
3838,0.38
3839,-0.38
3840,-0.31
3841,-0.46
3842,-1.37
3843,-1.6
3844,-1.98
3845,-2.9
3846,-2.82
3847,-1.68
3848,-0.61
3849,-0.08
3850,0.53
3851,1.22
3852,1.37
3853,0.99
3854,0.61
3855,0.84
3856,0.99
3857,0.69
3858,1.45
3859,1.45
3860,-1.68
3861,-4.43
3862,-3.59
3863,-1.68
3864,-0.38
3865,1.53
3866,4.27
3867,6.03
3868,5.11
3869,2.82
3870,0.23
3871,-2.21
3872,-3.21
3873,-2.14
3874,-1.45
3875,-2.67
3876,-4.05
3877,-4.27
3878,-3.66
3879,-2.14
3880,-0.31
3881,0.84
3882,0.46
3883,-0.99
3884,-1.22
3885,0.15
3886,0.92
3887,1.83
3888,3.97
3889,5.19
3890,3.89
3891,0.69
3892,-3.51
3893,-6.26
3894,-5.8
3895,-4.05
3896,-2.6
3897,-1.83
3898,-2.14
3899,-1.83
3900,0.61
3901,2.82
3902,2.29
3903,0.99
3904,1.83
3905,3.97
3906,4.89
3907,4.12
3908,2.75
3909,0.69
3910,-1.45
3911,-2.75
3912,-4.2
3913,-6.34
3914,-7.02
3915,-5.73
3916,-4.66
3917,-3.74
3918,-2.6
3919,-1.68
3920,-0.69
3921,0.53
3922,1.3
3923,1.76
3924,3.28
3925,5.19
3926,5.19
3927,3.44
3928,1.83
3929,1.22
3930,2.14
3931,3.36
3932,2.82
3933,0.61
3934,-2.6
3935,-6.34
3936,-7.71
3937,-4.96
3938,-0.92
3939,1.15
3940,0.84
3941,-0.69
3942,-1.98
3943,-1.53
3944,0
3945,2.37
3946,4.27
3947,3.66
3948,1.6
3949,1.53
3950,3.66
3951,4.96
3952,3.05
3953,-0.92
3954,-3.97
3955,-3.74
3956,-1.07
3957,0.84
3958,-0.08
3959,-1.37
3960,-0.99
3961,-1.07
3962,-2.44
3963,-2.44
3964,-1.07
3965,-0.69
3966,-0.69
3967,0
3968,0.99
3969,2.44
3970,4.66
3971,6.03
3972,3.89
3973,-0.31
3974,-1.15
3975,1.6
3976,1.45
3977,-1.98
3978,-3.05
3979,-1.76
3980,-2.29
3981,-4.58
3982,-4.96
3983,-3.44
3984,-2.9
3985,-3.59
3986,-2.6
3987,-0.23
3988,1.15
3989,0.08
3990,-2.75
3991,-3.51
3992,-0.31
3993,1.98
3994,-0.92
3995,-6.11
3996,-8.17
3997,-6.87
3998,-4.89
3999,-2.14
4000,1.45
4001,4.27
4002,4.73
4003,4.2
4004,4.05
4005,3.89
4006,3.05
4007,1.6
4008,1.07
4009,2.9
4010,5.88
4011,7.63
4012,8.55
4013,8.02
4014,3.97
4015,-0.92
4016,-2.82
4017,-2.21
4018,-0.53
4019,1.45
4020,1.91
4021,-0.08
4022,-3.51
4023,-5.27
4024,-4.58
4025,-3.89
4026,-4.05
4027,-1.68
4028,1.83
4029,0.99
4030,-1.53
4031,-0.08
4032,2.6
4033,2.82
4034,2.37
4035,3.05
4036,4.12
4037,3.51
4038,0.53
4039,-3.28
4040,-4.5
4041,-1.6
4042,1.07
4043,-0.08
4044,-2.9
4045,-2.9
4046,0.23
4047,2.44
4048,1.68
4049,0.99
4050,2.82
4051,4.27
4052,3.13
4053,0.99
4054,-1.37
4055,-4.5
4056,-5.8
4057,-4.73
4058,-3.36
4059,-2.82
4060,-2.82
4061,-2.37
4062,-0.23
4063,1.83
4064,1.68
4065,0.23
4066,-0.76
4067,-1.22
4068,-0.84
4069,-0.92
4070,-1.6
4071,-0.92
4072,0.92
4073,1.68
4074,1.15
4075,-0.69
4076,-3.97
4077,-5.88
4078,-4.89
4079,-3.51
4080,-2.67
4081,-0.84
4082,1.37
4083,1.76
4084,0.15
4085,-0.84
4086,-0.08
4087,1.98
4088,3.36
4089,2.37
4090,0.23
4091,-2.75
4092,-5.04
4093,-2.21
4094,2.75
4095,2.98
4096,0.31
4097,-0.99
4098,-1.76
4099,-2.29
4100,-0.38
4101,2.9
4102,2.44
4103,-1.6
4104,-3.13
4105,-0.61
4106,1.68
4107,2.21
4108,1.6
4109,-0.46
4110,-3.89
4111,-6.49
4112,-6.41
4113,-4.27
4114,-1.6
4115,0.46
4116,0.61
4117,-0.69
4118,-0.53
4119,0.53
4120,0.61
4121,0.23
4122,0.08
4123,0
4124,-0.61
4125,-0.84
4126,0.99
4127,2.29
4128,0.69
4129,-1.3
4130,-1.76
4131,-1.68
4132,-1.3
4133,-0.53
4134,0.53
4135,2.37
4136,3.74
4137,3.36
4138,3.74
4139,5.73
4140,4.81
4141,-0.15
4142,-3.51
4143,-3.05
4144,-1.22
4145,1.76
4146,3.89
4147,2.9
4148,1.22
4149,1.3
4150,2.14
4151,2.52
4152,2.44
4153,2.06
4154,0
4155,-1.45
4156,1.37
4157,5.04
4158,4.5
4159,2.67
4160,1.53
4161,-0.46
4162,-2.52
4163,-1.6
4164,1.91
4165,4.81
4166,4.35
4167,1.3
4168,-1.6
4169,-1.83
4170,0.31
4171,2.75
4172,3.13
4173,1.22
4174,-0.92
4175,-2.29
4176,-3.13
4177,-2.82
4178,-0.92
4179,0.92
4180,1.98
4181,2.06
4182,1.83
4183,2.14
4184,1.37
4185,-0.92
4186,-3.36
4187,-4.96
4188,-4.2
4189,-0.99
4190,1.98
4191,2.75
4192,0.46
4193,-2.14
4194,-2.37
4195,-1.68
4196,-2.06
4197,-1.15
4198,1.3
4199,2.06
4200,0.92
4201,0.31
4202,-0.38
4203,-1.3
4204,0.38
4205,3.21
4206,3.13
4207,1.53
4208,0.61
4209,-0.84
4210,-2.67
4211,-2.21
4212,-0.31
4213,-0.31
4214,-1.53
4215,-0.84
4216,0.84
4217,1.15
4218,-0.08
4219,-1.83
4220,-1.91
4221,0.23
4222,2.9
4223,4.73
4224,4.89
4225,2.9
4226,0.23
4227,-2.37
4228,-4.43
4229,-4.35
4230,-2.52
4231,-0.76
4232,0.53
4233,0.61
4234,-0.08
4235,-0.08
4236,0.08
4237,0.31
4238,1.07
4239,1.37
4240,-0.23
4241,-2.44
4242,-1.83
4243,1.22
4244,2.44
4245,0.61
4246,-0.92
4247,-0.61
4248,-0.31
4249,-0.31
4250,-0.84
4251,-1.76
4252,-1.07
4253,0.46
4254,0.61
4255,0.15
4256,0.92
4257,2.21
4258,2.37
4259,1.22
4260,-0.84
4261,-2.6
4262,-2.82
4263,-1.91
4264,-1.22
4265,-0.69
4266,0
4267,0.38
4268,0.61
4269,0.15
4270,-0.61
4271,-0.69
4272,-0.31
4273,-0.61
4274,-0.76
4275,-0.15
4276,-0.53
4277,-2.75
4278,-4.81
4279,-4.05
4280,-0.38
4281,2.29
4282,1.83
4283,0.76
4284,1.15
4285,1.37
4286,0
4287,-1.07
4288,0
4289,2.52
4290,4.27
4291,4.43
4292,2.52
4293,-1.37
4294,-4.05
4295,-2.6
4296,-0.08
4297,-0.92
4298,-4.05
4299,-4.89
4300,-2.75
4301,-1.15
4302,-0.76
4303,0.92
4304,3.51
4305,4.35
4306,3.05
4307,1.83
4308,2.75
4309,5.95
4310,8.02
4311,6.11
4312,1.53
4313,-2.21
4314,-3.51
4315,-2.21
4316,-0.31
4317,0
4318,-1.22
4319,-2.37
4320,-2.14
4321,-2.14
4322,-2.98
4323,-2.52
4324,-0.08
4325,2.14
4326,2.82
4327,1.83
4328,-0.53
4329,-2.82
4330,-2.44
4331,0.31
4332,3.13
4333,3.28
4334,0.92
4335,-1.15
4336,-2.98
4337,-4.89
4338,-4.96
4339,-2.52
4340,0.61
4341,1.83
4342,0.23
4343,-1.37
4344,-0.84
4345,0.08
4346,-0.31
4347,-1.53
4348,-2.14
4349,-1.22
4350,0.92
4351,2.21
4352,0.76
4353,-0.76
4354,0.76
4355,3.66
4356,4.27
4357,3.66
4358,3.13
4359,0.38
4360,-5.04
4361,-8.78
4362,-7.18
4363,-2.75
4364,0.53
4365,2.52
4366,3.05
4367,2.98
4368,4.5
4369,5.95
4370,5.19
4371,2.6
4372,0.69
4373,0.76
4374,0.53
4375,-1.37
4376,-2.67
4377,-2.6
4378,-2.44
4379,-2.44
4380,-2.98
4381,-4.27
4382,-5.19
4383,-5.34
4384,-4.35
4385,-1.07
4386,2.44
4387,3.97
4388,4.43
4389,4.05
4390,1.98
4391,0
4392,-0.76
4393,-1.98
4394,-4.66
4395,-6.79
4396,-5.27
4397,-0.84
4398,2.52
4399,3.66
4400,3.13
4401,1.37
4402,0
4403,-0.46
4404,-0.92
4405,-2.06
4406,-3.36
4407,-2.6
4408,0.38
4409,1.83
4410,1.22
4411,1.15
4412,1.98
4413,2.67
4414,2.75
4415,1.76
4416,-0.53
4417,-3.28
4418,-4.35
4419,-3.66
4420,-3.36
4421,-1.98
4422,2.37
4423,6.79
4424,8.09
4425,6.95
4426,4.43
4427,0.61
4428,-2.98
4429,-6.03
4430,-8.09
4431,-7.1
4432,-3.13
4433,0.08
4434,1.37
4435,2.9
4436,4.05
4437,2.9
4438,0.61
4439,-0.99
4440,-2.14
4441,-3.36
4442,-4.43
4443,-3.28
4444,0.08
4445,3.13
4446,3.97
4447,3.44
4448,2.37
4449,1.45
4450,1.68
4451,1.76
4452,-0.31
4453,-2.6
4454,-2.98
4455,-2.14
4456,-1.37
4457,-1.76
4458,-2.06
4459,-0.69
4460,1.98
4461,3.28
4462,1.6
4463,-1.3
4464,-2.9
4465,-0.46
4466,3.05
4467,2.06
4468,-1.91
4469,-2.52
4470,1.53
4471,4.35
4472,0.53
4473,-7.1
4474,-13.28
4475,-16.87
4476,-16.64
4477,-11.98
4478,-5.5
4479,0.61
4480,5.11
4481,7.02
4482,6.49
4483,4.73
4484,3.97
4485,4.89
4486,5.73
4487,5.27
4488,4.96
4489,5.65
4490,4.66
4491,1.3
4492,-1.76
4493,-1.76
4494,1.15
4495,3.28
4496,1.83
4497,-1.53
4498,-2.98
4499,-1.83
4500,-0.99
4501,-2.14
4502,-3.82
4503,-2.82
4504,1.98
4505,6.64
4506,6.56
4507,2.37
4508,-2.06
4509,-4.2
4510,-3.05
4511,-1.53
4512,-2.06
4513,-3.36
4514,-3.66
4515,-2.29
4516,0.76
4517,3.89
4518,4.66
4519,2.37
4520,0.38
4521,1.15
4522,0.76
4523,-2.37
4524,-4.05
4525,-2.98
4526,-1.37
4527,0.76
4528,2.29
4529,0.23
4530,-3.51
4531,-4.05
4532,-2.6
4533,-3.89
4534,-4.05
4535,0.38
4536,4.5
4537,4.73
4538,4.2
4539,3.97
4540,2.9
4541,0.53
4542,-2.6
4543,-4.73
4544,-3.66
4545,-1.53
4546,-0.76
4547,0
4548,2.21
4549,3.28
4550,1.3
4551,-1.98
4552,-3.97
4553,-3.89
4554,-1.6
4555,2.44
4556,5.27
4557,4.35
4558,2.98
4559,4.12
4560,3.59
4561,-0.46
4562,-3.89
4563,-4.05
4564,-2.82
4565,-2.29
4566,-2.21
4567,-1.07
4568,0.76
4569,1.53
4570,0.76
4571,0.08
4572,0.08
4573,-0.15
4574,0.15
4575,1.3
4576,0.38
4577,-1.45
4578,-1.68
4579,-0.76
4580,-0.69
4581,-2.06
4582,-3.28
4583,-3.89
4584,-4.05
4585,-1.68
4586,3.05
4587,5.95
4588,4.96
4589,0.76
4590,-4.43
4591,-7.18
4592,-5.88
4593,-2.29
4594,1.76
4595,4.89
4596,5.34
4597,2.9
4598,-0.46
4599,-3.13
4600,-5.27
4601,-6.72
4602,-6.34
4603,-4.58
4604,-2.75
4605,-0.69
4606,1.22
4607,2.82
4608,3.66
4609,3.59
4610,3.44
4611,3.66
4612,2.44
4613,-0.69
4614,-1.3
4615,1.45
4616,3.74
4617,4.05
4618,2.82
4619,1.22
4620,1.3
4621,1.68
4622,-0.84
4623,-4.27
4624,-3.74
4625,0.69
4626,3.82
4627,3.89
4628,3.82
4629,3.82
4630,2.82
4631,1.53
4632,0.61
4633,0.23
4634,0.99
4635,1.76
4636,1.3
4637,0.61
4638,0.76
4639,0.38
4640,-0.61
4641,-1.22
4642,-1.22
4643,-0.53
4644,0.31
4645,0.92
4646,1.83
4647,2.44
4648,1.76
4649,0.61
4650,-0.69
4651,-2.75
4652,-3.89
4653,-2.6
4654,-0.76
4655,-0.61
4656,-0.84
4657,0.46
4658,2.6
4659,3.82
4660,3.28
4661,2.06
4662,2.14
4663,2.67
4664,1.45
4665,-0.08
4666,-0.31
4667,-0.08
4668,-0.92
4669,-1.68
4670,-1.22
4671,-1.37
4672,-2.67
4673,-2.21
4674,0.23
4675,1.3
4676,0.46
4677,0
4678,0.53
4679,1.68
4680,2.44
4681,2.29
4682,1.45
4683,-0.31
4684,-1.15
4685,0.08
4686,0.38
4687,-2.29
4688,-4.27
4689,-2.37
4690,0.69
4691,1.53
4692,0.15
4693,-2.29
4694,-3.28
4695,-0.08
4696,4.12
4697,4.35
4698,1.68
4699,-0.53
4700,-1.22
4701,-0.46
4702,0.46
4703,1.3
4704,2.44
4705,2.82
4706,1.15
4707,-1.07
4708,-2.37
4709,-2.82
4710,-1.83
4711,0.53
4712,1.3
4713,-0.31
4714,-1.45
4715,-1.07
4716,-0.84
4717,-0.46
4718,0.84
4719,2.06
4720,1.53
4721,0.31
4722,-0.08
4723,-0.84
4724,-1.53
4725,-0.53
4726,1.98
4727,2.52
4728,-0.46
4729,-3.66
4730,-3.89
4731,-1.6
4732,2.06
4733,4.89
4734,5.5
4735,4.12
4736,1.83
4737,0.08
4738,-0.76
4739,-0.99
4740,-1.3
4741,-1.68
4742,-0.76
4743,0.69
4744,0.38
4745,-0.99
4746,-0.84
4747,0.53
4748,1.22
4749,1.45
4750,1.37
4751,0.69
4752,1.3
4753,4.05
4754,6.79
4755,7.02
4756,4.58
4757,1.22
4758,-1.3
4759,-2.52
4760,-2.98
4761,-3.89
4762,-4.5
4763,-3.36
4764,-1.22
4765,0.69
4766,2.06
4767,2.29
4768,1.07
4769,0
4770,0.61
4771,1.3
4772,1.3
4773,2.67
4774,3.82
4775,2.21
4776,0
4777,-1.07
4778,-2.14
4779,-2.75
4780,-2.21
4781,-1.6
4782,-1.45
4783,-0.76
4784,0.69
4785,1.91
4786,1.53
4787,-0.69
4788,-3.13
4789,-3.05
4790,-0.46
4791,1.68
4792,1.6
4793,0.38
4794,-1.22
4795,-2.98
4796,-3.89
4797,-3.66
4798,-2.06
4799,1.6
4800,6.41
4801,9.01
4802,6.87
4803,1.15
4804,-3.59
4805,-5.11
4806,-5.11
4807,-4.43
4808,-2.37
4809,-0.69
4810,-0.84
4811,-0.84
4812,0.69
4813,3.13
4814,5.34
4815,5.8
4816,3.44
4817,0.15
4818,-1.07
4819,-1.15
4820,-1.98
4821,-2.75
4822,-2.29
4823,-1.53
4824,-0.69
4825,-0.46
4826,-1.6
4827,-2.29
4828,-0.92
4829,1.83
4830,4.5
4831,5.27
4832,4.05
4833,1.53
4834,-0.99
4835,-2.75
4836,-3.21
4837,-2.52
4838,-0.99
4839,0.23
4840,0.76
4841,1.07
4842,1.83
4843,2.82
4844,2.37
4845,0.23
4846,-0.23
4847,2.9
4848,5.34
4849,2.29
4850,-3.59
4851,-7.4
4852,-7.33
4853,-3.74
4854,0.15
4855,0.15
4856,-1.91
4857,-2.67
4858,-2.37
4859,-2.44
4860,-2.6
4861,-0.92
4862,2.9
4863,5.95
4864,5.5
4865,2.52
4866,0.08
4867,-0.69
4868,-2.29
4869,-5.65
4870,-7.02
4871,-4.12
4872,0.84
4873,4.66
4874,5.95
4875,5.11
4876,1.37
4877,-3.36
4878,-5.19
4879,-4.05
4880,-1.68
4881,0.84
4882,2.06
4883,1.76
4884,1.45
4885,1.53
4886,1.91
4887,3.51
4888,4.35
4889,2.14
4890,-0.46
4891,-0.23
4892,1.53
4893,1.45
4894,-1.6
4895,-5.57
4896,-6.49
4897,-3.44
4898,-0.15
4899,1.68
4900,4.12
4901,6.34
4902,5.42
4903,1.68
4904,-1.6
4905,-2.14
4906,-0.61
4907,0
4908,-0.69
4909,-0.69
4910,0
4911,0.76
4912,0.61
4913,-1.68
4914,-5.65
4915,-8.85
4916,-7.56
4917,-1.37
4918,4.27
4919,5.8
4920,3.82
4921,1.3
4922,0.38
4923,1.15
4924,3.51
4925,5.34
4926,2.75
4927,-2.82
4928,-5.34
4929,-3.59
4930,-1.37
4931,0.38
4932,1.98
4933,2.6
4934,1.91
4935,-0.31
4936,-3.36
4937,-4.27
4938,-2.14
4939,0.76
4940,2.14
4941,0.84
4942,-1.37
4943,-2.6
4944,-2.37
4945,-0.99
4946,0
4947,0.23
4948,1.6
4949,3.74
4950,4.35
4951,3.05
4952,0.61
4953,-2.06
4954,-2.06
4955,1.53
4956,3.89
4957,2.29
4958,0.61
4959,1.37
4960,1.6
4961,-0.69
4962,-2.82
4963,-2.21
4964,-0.84
4965,-0.08
4966,0.84
4967,2.44
4968,4.35
4969,4.89
4970,1.6
4971,-2.98
4972,-4.89
4973,-4.35
4974,-4.43
4975,-4.5
4976,-2.98
4977,0
4978,2.9
4979,3.82
4980,2.6
4981,1.68
4982,1.15
4983,0.15
4984,-0.99
4985,-1.83
4986,-1.6
4987,0.08
4988,1.53
4989,0.61
4990,-1.91
4991,-3.28
4992,-1.07
4993,2.75
4994,4.35
4995,3.05
4996,1.68
4997,1.22
4998,-0.31
4999,-3.13
5000,-4.35
5001,-3.89
5002,-4.2
5003,-4.73
5004,-4.81
5005,-6.11
5006,-8.02
5007,-8.32
5008,-6.64
5009,-4.96
5010,-3.82
5011,-1.76
5012,0.46
5013,1.68
5014,2.9
5015,5.57
5016,8.85
5017,9.31
5018,5.42
5019,0.92
5020,-0.84
5021,0.15
5022,2.6
5023,4.43
5024,3.59
5025,0.38
5026,-1.98
5027,-2.06
5028,-0.46
5029,2.14
5030,3.36
5031,1.76
5032,1.15
5033,2.98
5034,3.97
5035,2.21
5036,-0.15
5037,-0.46
5038,0.31
5039,-1.76
5040,-5.34
5041,-5.11
5042,-1.76
5043,0.69
5044,1.98
5045,2.06
5046,0.61
5047,0.08
5048,0.99
5049,1.76
5050,1.76
5051,1.6
5052,0.69
5053,-0.76
5054,-1.15
5055,0.08
5056,1.07
5057,0.69
5058,0.08
5059,-1.07
5060,-3.59
5061,-4.81
5062,-2.75
5063,0.15
5064,1.68
5065,1.98
5066,1.53
5067,0.76
5068,-1.45
5069,-4.73
5070,-4.12
5071,0.99
5072,4.81
5073,4.2
5074,1.76
5075,0.69
5076,1.22
5077,0.84
5078,-0.53
5079,-0.53
5080,-0.31
5081,-0.92
5082,-0.38
5083,0.61
5084,-0.23
5085,-1.76
5086,-1.53
5087,0
5088,0.76
5089,-0.53
5090,-1.53
5091,-0.23
5092,1.07
5093,0.69
5094,0.92
5095,2.67
5096,3.13
5097,1.91
5098,0.15
5099,-2.14
5100,-3.51
5101,-1.91
5102,0.38
5103,0.53
5104,-0.08
5105,-0.15
5106,-1.3
5107,-3.66
5108,-4.27
5109,-2.37
5110,-0.08
5111,1.98
5112,2.98
5113,1.53
5114,-0.76
5115,-2.06
5116,-3.13
5117,-3.51
5118,-2.6
5119,-2.6
5120,-3.13
5121,-1.45
5122,0.99
5123,1.68
5124,1.22
5125,1.15
5126,0.38
5127,-0.53
5128,-0.53
5129,-1.37
5130,-3.89
5131,-4.89
5132,-2.98
5133,-1.07
5134,-1.6
5135,-2.14
5136,-1.22
5137,-0.08
5138,0.69
5139,1.53
5140,1.91
5141,1.45
5142,0.92
5143,0.99
5144,1.98
5145,3.28
5146,4.66
5147,6.03
5148,7.18
5149,6.87
5150,3.59
5151,-0.53
5152,-2.21
5153,-1.76
5154,-1.22
5155,-0.31
5156,1.45
5157,2.98
5158,2.98
5159,1.53
5160,0.46
5161,0.69
5162,1.6
5163,2.67
5164,3.74
5165,4.89
5166,4.58
5167,1.07
5168,-1.98
5169,-0.31
5170,3.13
5171,2.9
5172,0.31
5173,-0.15
5174,0.53
5175,-0.38
5176,-1.76
5177,-0.08
5178,3.21
5179,3.74
5180,1.76
5181,0.69
5182,0.31
5183,-0.31
5184,-0.31
5185,-0.15
5186,-0.61
5187,-1.15
5188,-1.3
5189,-1.83
5190,-1.98
5191,-1.22
5192,-0.69
5193,0.15
5194,2.67
5195,4.73
5196,5.04
5197,4.58
5198,2.75
5199,-0.99
5200,-3.05
5201,-0.84
5202,1.07
5203,-0.15
5204,-1.91
5205,-2.44
5206,-2.37
5207,-2.29
5208,-2.44
5209,-1.6
5210,1.07
5211,4.05
5212,4.43
5213,2.52
5214,1.45
5215,1.3
5216,-0.38
5217,-3.05
5218,-3.66
5219,-2.6
5220,-2.06
5221,-0.61
5222,2.06
5223,3.97
5224,2.9
5225,-1.15
5226,-4.05
5227,-2.44
5228,0.99
5229,2.06
5230,0.76
5231,0.76
5232,2.21
5233,1.83
5234,0.08
5235,0.46
5236,2.06
5237,1.07
5238,-2.44
5239,-4.58
5240,-3.59
5241,-1.68
5242,-0.46
5243,0.84
5244,2.37
5245,2.75
5246,1.37
5247,-0.08
5248,0.38
5249,2.29
5250,3.05
5251,2.37
5252,1.68
5253,0.69
5254,-0.53
5255,-0.53
5256,0.61
5257,1.07
5258,0.08
5259,-1.45
5260,-1.98
5261,0.46
5262,3.66
5263,2.9
5264,-0.23
5265,-1.83
5266,-1.83
5267,-1.98
5268,-1.91
5269,-0.92
5270,0.38
5271,0.76
5272,-0.31
5273,-1.22
5274,-0.46
5275,0.38
5276,0.15
5277,-0.23
5278,-0.84
5279,-1.68
5280,-2.14
5281,-1.3
5282,-0.31
5283,-0.69
5284,-1.07
5285,-0.76
5286,-1.68
5287,-2.52
5288,-1.53
5289,-0.76
5290,-0.99
5291,-0.15
5292,1.45
5293,1.76
5294,0
5295,-1.98
5296,-0.53
5297,3.21
5298,4.73
5299,3.36
5300,1.3
5301,-0.38
5302,-1.91
5303,-2.21
5304,-1.07
5305,0
5306,-0.08
5307,-0.46
5308,-0.31
5309,-0.08
5310,-0.61
5311,-2.6
5312,-4.73
5313,-4.12
5314,-0.53
5315,2.37
5316,2.67
5317,1.68
5318,1.07
5319,1.91
5320,4.5
5321,5.57
5322,2.52
5323,-1.68
5324,-3.51
5325,-3.89
5326,-4.2
5327,-3.74
5328,-2.44
5329,-1.07
5330,-0.92
5331,-1.98
5332,-1.68
5333,-0.15
5334,0.53
5335,0.92
5336,1.37
5337,0.38
5338,-1.6
5339,-2.14
5340,-1.22
5341,-1.3
5342,-2.9
5343,-4.27
5344,-3.51
5345,0
5346,3.74
5347,4.12
5348,1.15
5349,-1.6
5350,-0.76
5351,2.52
5352,3.74
5353,2.52
5354,1.22
5355,-0.23
5356,-1.37
5357,-0.69
5358,0.38
5359,0.61
5360,0.92
5361,1.45
5362,0.92
5363,-0.69
5364,-1.98
5365,-1.83
5366,-0.08
5367,1.45
5368,0
5369,-3.74
5370,-5.11
5371,-3.13
5372,0.53
5373,4.43
5374,5.88
5375,3.89
5376,0.38
5377,-2.6
5378,-3.89
5379,-3.74
5380,-3.28
5381,-1.98
5382,0.15
5383,1.15
5384,0.53
5385,0.69
5386,1.6
5387,1.37
5388,-0.92
5389,-2.52
5390,-1.07
5391,0.31
5392,-0.08
5393,-0.61
5394,-0.92
5395,-1.45
5396,-2.44
5397,-3.21
5398,-2.6
5399,-0.76
5400,1.15
5401,3.28
5402,4.12
5403,2.21
5404,-1.15
5405,-3.28
5406,-2.9
5407,-0.23
5408,3.05
5409,3.89
5410,1.6
5411,-0.61
5412,-1.83
5413,-2.75
5414,-1.76
5415,1.07
5416,2.52
5417,2.06
5418,2.14
5419,2.29
5420,1.07
5421,-0.92
5422,-1.37
5423,0.38
5424,2.52
5425,3.59
5426,3.97
5427,3.05
5428,0.61
5429,-2.82
5430,-6.11
5431,-5.95
5432,-1.76
5433,0.84
5434,-0.23
5435,-1.76
5436,-0.38
5437,2.44
5438,4.12
5439,3.66
5440,2.9
5441,2.98
5442,1.37
5443,-3.74
5444,-8.55
5445,-8.09
5446,-2.67
5447,3.36
5448,6.03
5449,4.43
5450,1.91
5451,1.15
5452,0.69
5453,-0.92
5454,-1.68
5455,0.53
5456,2.52
5457,1.98
5458,0.76
5459,-0.23
5460,-1.07
5461,-0.92
5462,0
5463,0.84
5464,1.76
5465,3.05
5466,3.36
5467,1.45
5468,0
5469,0.76
5470,0.46
5471,-2.75
5472,-3.89
5473,-0.92
5474,0.84
5475,-0.31
5476,-1.22
5477,-0.38
5478,0.23
5479,-0.23
5480,-0.61
5481,0.46
5482,2.06
5483,2.29
5484,1.45
5485,0.92
5486,0.31
5487,-1.76
5488,-3.66
5489,-2.29
5490,1.3
5491,3.36
5492,2.82
5493,1.37
5494,0.61
5495,0.53
5496,0.69
5497,0.76
5498,1.07
5499,1.37
5500,1.83
5501,2.21
5502,0.15
5503,-3.13
5504,-4.05
5505,-1.45
5506,1.91
5507,2.06
5508,-0.99
5509,-2.98
5510,-1.3
5511,2.6
5512,5.65
5513,5.95
5514,4.89
5515,2.9
5516,-0.69
5517,-3.51
5518,-3.59
5519,-3.59
5520,-3.82
5521,-1.45
5522,2.52
5523,4.66
5524,4.2
5525,2.98
5526,0.99
5527,-1.83
5528,-3.59
5529,-2.82
5530,-1.98
5531,-1.98
5532,-0.53
5533,1.53
5534,2.06
5535,1.76
5536,1.22
5537,0.08
5538,-1.3
5539,-3.21
5540,-4.89
5541,-5.11
5542,-4.2
5543,-3.74
5544,-4.58
5545,-6.49
5546,-7.71
5547,-7.33
5548,-6.03
5549,-3.51
5550,-0.31
5551,1.07
5552,0.38
5553,0.08
5554,1.83
5555,4.27
5556,4.96
5557,3.44
5558,2.44
5559,3.82
5560,6.72
5561,9.01
5562,9.47
5563,8.24
5564,5.42
5565,1.22
5566,-2.37
5567,-2.9
5568,-1.68
5569,-2.21
5570,-3.82
5571,-3.59
5572,-2.67
5573,-2.82
5574,-2.75
5575,-1.53
5576,-0.08
5577,1.83
5578,3.59
5579,3.74
5580,2.6
5581,1.91
5582,2.37
5583,2.06
5584,0.08
5585,-1.6
5586,-2.06
5587,-1.45
5588,-0.99
5589,-1.07
5590,-1.6
5591,-2.6
5592,-2.37
5593,-0.23
5594,1.83
5595,2.9
5596,2.82
5597,1.53
5598,0.31
5599,0.76
5600,0.69
5601,-1.07
5602,-1.3
5603,0.69
5604,0.53
5605,-2.06
5606,-3.74
5607,-4.2
5608,-5.27
5609,-4.96
5610,-1.83
5611,1.76
5612,3.74
5613,4.58
5614,3.51
5615,0.38
5616,-2.06
5617,-2.29
5618,-1.37
5619,-1.22
5620,-1.98
5621,-1.98
5622,-0.92
5623,-0.46
5624,0
5625,1.6
5626,2.29
5627,1.45
5628,0.15
5629,-0.38
5630,0
5631,0.23
5632,0.38
5633,0.99
5634,0.69
5635,-1.15
5636,-1.15
5637,1.22
5638,2.52
5639,1.6
5640,0
5641,-1.3
5642,-1.91
5643,-0.61
5644,1.91
5645,2.75
5646,0.15
5647,-1.6
5648,-0.92
5649,-0.99
5650,-2.29
5651,-2.29
5652,-0.84
5653,-0.08
5654,-2.14
5655,-5.65
5656,-7.02
5657,-4.73
5658,-0.53
5659,2.52
5660,3.36
5661,2.82
5662,2.14
5663,0.84
5664,-0.99
5665,-1.15
5666,-0.08
5667,-0.92
5668,-2.29
5669,-1.3
5670,-0.15
5671,-1.22
5672,-1.83
5673,-0.31
5674,1.83
5675,3.59
5676,4.27
5677,3.28
5678,1.3
5679,-0.53
5680,-2.14
5681,-2.14
5682,-0.08
5683,1.91
5684,2.29
5685,1.45
5686,0.84
5687,0.53
5688,-0.31
5689,-0.99
5690,0.61
5691,4.12
5692,5.88
5693,5.42
5694,5.57
5695,6.56
5696,5.95
5697,3.74
5698,2.44
5699,1.53
5700,-1.53
5701,-4.58
5702,-3.36
5703,0.38
5704,2.29
5705,0.99
5706,-1.45
5707,-2.6
5708,-1.3
5709,1.15
5710,3.36
5711,4.5
5712,3.59
5713,0.53
5714,-1.53
5715,-1.07
5716,-0.31
5717,-0.46
5718,-0.53
5719,-0.08
5720,-0.69
5721,-0.92
5722,1.53
5723,3.74
5724,3.05
5725,1.83
5726,1.3
5727,0.38
5728,-0.46
5729,0.15
5730,1.53
5731,1.76
5732,0.99
5733,0.38
5734,-0.08
5735,-0.69
5736,-0.99
5737,-1.15
5738,-0.99
5739,0.23
5740,1.6
5741,1.91
5742,1.37
5743,0.61
5744,-1.37
5745,-3.59
5746,-2.29
5747,0.69
5748,0.99
5749,-0.92
5750,-3.05
5751,-4.81
5752,-5.34
5753,-4.2
5754,-3.13
5755,-2.9
5756,-2.21
5757,-1.15
5758,-0.23
5759,0.92
5760,2.21
5761,3.13
5762,4.27
5763,4.27
5764,2.44
5765,0.53
5766,-0.31
5767,-0.53
5768,-0.53
5769,-0.76
5770,-1.53
5771,-2.21
5772,-1.76
5773,-0.15
5774,0.92
5775,0.53
5776,-0.38
5777,-0.31
5778,0.84
5779,1.45
5780,0.92
5781,0.61
5782,1.37
5783,1.07
5784,-0.84
5785,-1.98
5786,-1.98
5787,-1.53
5788,-0.46
5789,-0.31
5790,-1.37
5791,-1.76
5792,-0.23
5793,2.9
5794,4.89
5795,2.9
5796,-0.38
5797,-1.6
5798,-2.29
5799,-4.35
5800,-5.88
5801,-5.5
5802,-4.27
5803,-2.75
5804,-2.06
5805,-2.67
5806,-2.37
5807,-0.15
5808,1.83
5809,2.9
5810,2.14
5811,0.08
5812,0.23
5813,2.29
5814,2.21
5815,0.23
5816,-0.99
5817,-2.06
5818,-2.37
5819,-0.31
5820,1.91
5821,2.75
5822,3.21
5823,3.13
5824,2.52
5825,2.29
5826,2.44
5827,2.37
5828,1.3
5829,-0.61
5830,-2.44
5831,-2.98
5832,-1.68
5833,-0.15
5834,-1.37
5835,-4.66
5836,-5.11
5837,-1.45
5838,1.68
5839,2.06
5840,2.75
5841,5.11
5842,5.65
5843,3.05
5844,-0.46
5845,-2.67
5846,-3.13
5847,-3.51
5848,-4.05
5849,-3.97
5850,-3.66
5851,-3.36
5852,-2.44
5853,-1.83
5854,-1.83
5855,-2.21
5856,-2.82
5857,-2.21
5858,0.15
5859,2.67
5860,3.74
5861,4.05
5862,3.66
5863,2.21
5864,1.68
5865,1.91
5866,0.23
5867,-2.37
5868,-2.6
5869,-1.15
5870,-0.38
5871,0
5872,0
5873,-0.92
5874,-1.22
5875,0.53
5876,2.06
5877,0.99
5878,-0.61
5879,-0.31
5880,0.99
5881,1.76
5882,1.37
5883,0
5884,-1.22
5885,-0.69
5886,-0.15
5887,-0.84
5888,-0.23
5889,1.37
5890,1.07
5891,-1.15
5892,-3.51
5893,-4.81
5894,-4.73
5895,-3.28
5896,-0.69
5897,1.37
5898,1.91
5899,1.68
5900,1.22
5901,0.15
5902,-0.84
5903,-1.3
5904,-1.37
5905,-0.84
5906,0.38
5907,1.68
5908,1.37
5909,-0.76
5910,-2.6
5911,-2.6
5912,-1.37
5913,0.15
5914,0.84
5915,1.6
5916,3.05
5917,2.9
5918,0.76
5919,-0.46
5920,0.46
5921,2.06
5922,2.21
5923,0.76
5924,-0.92
5925,-1.22
5926,-1.07
5927,-2.52
5928,-4.05
5929,-2.52
5930,0.69
5931,3.21
5932,3.74
5933,2.75
5934,0.99
5935,-0.69
5936,-1.15
5937,-0.99
5938,-2.21
5939,-4.2
5940,-3.36
5941,-0.15
5942,0
5943,-2.06
5944,-2.14
5945,0.31
5946,2.9
5947,2.82
5948,0.31
5949,-1.22
5950,-0.99
5951,-1.3
5952,-2.06
5953,-1.22
5954,0.23
5955,0.92
5956,1.07
5957,1.45
5958,1.68
5959,1.07
5960,0
5961,-0.15
5962,-0.15
5963,-2.21
5964,-4.12
5965,-3.13
5966,-0.84
5967,1.83
5968,4.89
5969,4.05
5970,-0.61
5971,-3.21
5972,-1.07
5973,2.44
5974,3.44
5975,1.53
5976,0.08
5977,-0.46
5978,-1.98
5979,-2.9
5980,-0.99
5981,2.44
5982,5.27
5983,5.95
5984,4.43
5985,2.14
5986,-0.08
5987,-1.98
5988,-1.98
5989,-0.69
5990,0.61
5991,1.45
5992,0.53
5993,-0.08
5994,0.69
5995,0.15
5996,-1.83
5997,-2.82
5998,-2.9
5999,-3.59
6000,-3.97
6001,-2.67
6002,-0.46
6003,0.38
6004,-0.76
6005,-2.21
6006,-1.53
6007,-0.38
6008,-1.15
6009,-2.75
6010,-4.2
6011,-2.98
6012,1.76
6013,4.89
6014,3.28
6015,0.61
6016,-0.84
6017,-1.53
6018,-0.46
6019,0.61
6020,0
6021,-0.76
6022,-0.69
6023,-1.83
6024,-3.97
6025,-4.12
6026,-1.6
6027,0.76
6028,1.3
6029,0.46
6030,-0.46
6031,-0.61
6032,0.92
6033,4.35
6034,6.87
6035,5.34
6036,1.15
6037,-0.92
6038,0.53
6039,2.6
6040,3.05
6041,2.67
6042,1.68
6043,0.76
6044,0.84
6045,0.69
6046,-0.84
6047,-2.52
6048,-1.6
6049,1.53
6050,3.82
6051,3.13
6052,1.6
6053,0.08
6054,-1.98
6055,-3.28
6056,-3.36
6057,-3.66
6058,-3.74
6059,-2.37
6060,-0.99
6061,-0.31
6062,1.07
6063,2.21
6064,0.69
6065,-1.68
6066,-2.06
6067,-1.68
6068,-3.13
6069,-5.27
6070,-5.34
6071,-4.43
6072,-5.27
6073,-8.47
6074,-12.37
6075,-14.12
6076,-12.06
6077,-7.4
6078,-3.28
6079,-0.76
6080,1.3
6081,2.75
6082,2.67
6083,2.6
6084,3.74
6085,4.66
6086,4.5
6087,4.96
6088,6.72
6089,7.1
6090,5.34
6091,2.75
6092,-0.61
6093,-2.44
6094,0
6095,1.91
6096,-0.08
6097,-1.76
6098,-0.61
6099,1.83
6100,4.43
6101,4.89
6102,2.44
6103,-0.31
6104,-1.98
6105,-2.14
6106,-1.76
6107,-2.6
6108,-3.51
6109,-1.53
6110,2.14
6111,4.05
6112,2.82
6113,0
6114,-2.06
6115,-1.98
6116,0.46
6117,3.59
6118,4.66
6119,3.51
6120,2.9
6121,3.13
6122,1.45
6123,-2.14
6124,-3.82
6125,-2.29
6126,-0.31
6127,0
6128,-0.76
6129,-0.46
6130,2.14
6131,4.89
6132,5.11
6133,2.21
6134,-2.6
6135,-6.87
6136,-7.71
6137,-5.34
6138,-2.29
6139,0
6140,0.61
6141,0.46
6142,0.61
6143,0.84
6144,1.68
6145,2.9
6146,2.44
6147,0.69
6148,0.69
6149,2.14
6150,2.14
6151,0.08
6152,-2.37
6153,-4.5
6154,-4.81
6155,-2.75
6156,-0.53
6157,0.23
6158,0.61
6159,1.68
6160,2.82
6161,2.98
6162,2.21
6163,1.53
6164,1.22
6165,0.08
6166,-2.21
6167,-3.36
6168,-2.82
6169,-1.83
6170,-0.76
6171,-0.38
6172,-1.53
6173,-3.66
6174,-3.89
6175,-1.22
6176,-0.31
6177,-2.6
6178,-4.05
6179,-2.44
6180,0.61
6181,2.75
6182,1.6
6183,-1.07
6184,-1.68
6185,-0.15
6186,0.53
6187,0.15
6188,0.31
6189,0.69
6190,0.08
6191,-1.91
6192,-4.27
6193,-5.88
6194,-5.88
6195,-4.05
6196,-0.69
6197,1.76
6198,1.91
6199,1.68
6200,2.82
6201,2.98
6202,0.69
6203,-1.98
6204,-2.82
6205,-2.67
6206,-1.98
6207,-0.38
6208,0.99
6209,1.22
6210,0.61
6211,0
6212,-0.15
6213,-0.23
6214,0
6215,0.46
6216,0
6217,-1.45
6218,-1.76
6219,0.38
6220,1.98
6221,0.53
6222,-1.76
6223,-1.3
6224,0.99
6225,2.29
6226,3.13
6227,5.8
6228,9.01
6229,8.93
6230,4.2
6231,-0.99
6232,-2.44
6233,-1.76
6234,-2.37
6235,-4.5
6236,-6.56
6237,-5.8
6238,-1.76
6239,1.83
6240,2.37
6241,2.44
6242,3.97
6243,5.34
6244,5.04
6245,3.05
6246,0.15
6247,-1.37
6248,-0.38
6249,0.61
6250,-0.15
6251,-2.29
6252,-4.43
6253,-4.81
6254,-2.75
6255,-0.76
6256,-1.15
6257,-2.37
6258,-0.61
6259,3.59
6260,6.03
6261,4.35
6262,1.15
6263,0
6264,0.76
6265,1.07
6266,-0.08
6267,-1.53
6268,-1.45
6269,-0.38
6270,0.31
6271,1.3
6272,3.51
6273,5.42
6274,3.82
6275,-0.76
6276,-4.81
6277,-6.34
6278,-6.11
6279,-4.2
6280,-0.53
6281,2.82
6282,4.2
6283,3.28
6284,1.15
6285,-0.23
6286,-0.99
6287,-2.6
6288,-4.35
6289,-3.89
6290,-1.53
6291,0.31
6292,0.23
6293,-0.53
6294,0.53
6295,3.28
6296,4.05
6297,0.76
6298,-3.66
6299,-4.89
6300,-3.21
6301,-1.53
6302,-1.07
6303,-1.53
6304,-0.69
6305,1.37
6306,1.15
6307,-1.76
6308,-3.59
6309,-3.13
6310,-2.44
6311,-1.83
6312,0.46
6313,4.5
6314,7.18
6315,6.87
6316,4.2
6317,0.69
6318,-1.98
6319,-3.36
6320,-3.66
6321,-2.98
6322,-1.15
6323,1.07
6324,2.21
6325,2.14
6326,2.14
6327,1.91
6328,0.53
6329,-0.99
6330,-1.37
6331,-0.53
6332,0.23
6333,1.15
6334,2.6
6335,1.45
6336,-2.37
6337,-2.82
6338,0.69
6339,1.45
6340,-1.45
6341,-3.97
6342,-4.12
6343,-2.67
6344,-1.3
6345,-0.53
6346,0.99
6347,3.05
6348,3.74
6349,3.89
6350,4.73
6351,3.74
6352,0.76
6353,-1.15
6354,-1.68
6355,-2.21
6356,-2.21
6357,-1.3
6358,-0.61
6359,-1.22
6360,-3.59
6361,-4.12
6362,-0.15
6363,3.13
6364,3.36
6365,2.29
6366,0.92
6367,-0.23
6368,-0.23
6369,0.31
6370,-0.15
6371,-1.07
6372,-0.99
6373,-0.92
6374,-2.06
6375,-3.36
6376,-4.66
6377,-4.96
6378,-3.28
6379,-0.53
6380,1.6
6381,2.6
6382,2.44
6383,1.6
6384,1.6
6385,2.9
6386,3.89
6387,2.98
6388,1.53
6389,1.22
6390,0.99
6391,0.38
6392,-0.08
6393,-1.45
6394,-3.44
6395,-3.36
6396,-0.69
6397,1.53
6398,0.92
6399,-0.46
6400,-1.22
6401,-1.3
6402,-0.08
6403,1.45
6404,1.07
6405,-1.6
6406,-4.43
6407,-5.34
6408,-5.8
6409,-5.34
6410,-2.21
6411,1.45
6412,3.97
6413,5.5
6414,5.34
6415,3.82
6416,2.37
6417,1.07
6418,-0.31
6419,-0.61
6420,0.46
6421,0.08
6422,-3.66
6423,-6.79
6424,-5.57
6425,-2.37
6426,0.84
6427,3.74
6428,4.89
6429,4.43
6430,3.44
6431,1.91
6432,0.31
6433,-0.53
6434,-1.37
6435,-2.82
6436,-2.29
6437,0.92
6438,2.06
6439,-0.46
6440,-2.21
6441,-0.84
6442,0.69
6443,0.38
6444,-0.08
6445,0.46
6446,1.15
6447,2.44
6448,4.27
6449,5.11
6450,4.58
6451,3.21
6452,2.29
6453,2.14
6454,0.46
6455,-2.6
6456,-3.89
6457,-3.59
6458,-2.67
6459,-1.15
6460,0.61
6461,1.37
6462,0.53
6463,0.31
6464,1.45
6465,0.38
6466,-3.36
6467,-4.43
6468,-0.31
6469,3.97
6470,4.73
6471,3.05
6472,1.45
6473,0.76
6474,0.31
6475,-0.23
6476,-0.61
6477,-2.14
6478,-5.34
6479,-7.63
6480,-6.41
6481,-2.37
6482,0.53
6483,-0.31
6484,-2.44
6485,-1.3
6486,1.98
6487,4.58
6488,4.58
6489,1.91
6490,0.53
6491,2.21
6492,1.83
6493,-1.91
6494,-4.2
6495,-3.89
6496,-3.66
6497,-3.74
6498,-2.75
6499,0.08
6500,2.67
6501,2.67
6502,1.45
6503,1.22
6504,1.37
6505,0.31
6506,-1.68
6507,-2.82
6508,-2.75
6509,-1.68
6510,0.69
6511,2.21
6512,0.92
6513,-1.91
6514,-4.27
6515,-3.05
6516,0.99
6517,3.44
6518,4.35
6519,5.8
6520,5.73
6521,5.11
6522,5.27
6523,2.06
6524,-4.43
6525,-8.55
6526,-6.95
6527,-2.82
6528,-0.99
6529,-1.83
6530,-2.06
6531,0.31
6532,3.59
6533,3.89
6534,1.15
6535,-0.76
6536,-0.31
6537,0.53
6538,1.3
6539,2.52
6540,3.05
6541,2.44
6542,1.76
6543,0.15
6544,-1.68
6545,-1.37
6546,0.84
6547,2.98
6548,2.9
6549,-0.08
6550,-3.05
6551,-2.52
6552,0.15
6553,1.53
6554,1.45
6555,2.06
6556,3.28
6557,3.97
6558,3.13
6559,0.69
6560,-2.37
6561,-3.28
6562,-0.53
6563,1.6
6564,1.3
6565,1.76
6566,2.75
6567,1.37
6568,-0.15
6569,0.69
6570,1.22
6571,-0.76
6572,-1.91
6573,-0.46
6574,1.6
6575,2.06
6576,0
6577,-2.37
6578,-2.29
6579,-1.22
6580,-1.07
6581,-0.84
6582,0.69
6583,1.91
6584,0.76
6585,-1.68
6586,-2.52
6587,-0.61
6588,0.53
6589,-1.83
6590,-4.81
6591,-6.34
6592,-7.94
6593,-9.62
6594,-9.01
6595,-6.34
6596,-4.27
6597,-2.6
6598,0.08
6599,2.44
6600,2.52
6601,2.44
6602,3.89
6603,5.34
6604,6.64
6605,8.55
6606,9.92
6607,10
6608,9.54
6609,7.56
6610,3.51
6611,-1.15
6612,-4.66
6613,-4.81
6614,-2.98
6615,-1.6
6616,-0.53
6617,-0.23
6618,-1.83
6619,-4.05
6620,-3.51
6621,0.23
6622,4.58
6623,6.64
6624,4.89
6625,0.69
6626,-2.44
6627,-3.13
6628,-2.44
6629,-1.3
6630,0.53
6631,2.06
6632,1.07
6633,-0.76
6634,-0.84
6635,0.15
6636,-0.31
6637,-1.98
6638,-1.68
6639,1.76
6640,4.96
6641,5.27
6642,3.13
6643,0.31
6644,-1.53
6645,-2.14
6646,-2.52
6647,-2.82
6648,-2.67
6649,-1.07
6650,1.3
6651,2.06
6652,0.08
6653,-1.22
6654,-0.53
6655,-0.46
6656,-0.99
6657,-0.46
6658,0.84
6659,1.6
6660,1.07
6661,-0.69
6662,-2.37
6663,-1.91
6664,0.31
6665,1.45
6666,0.69
6667,-0.92
6668,-2.9
6669,-3.74
6670,-2.14
6671,0.23
6672,0.46
6673,-1.07
6674,-1.3
6675,0
6676,1.07
6677,1.45
6678,1.83
6679,2.06
6680,1.83
6681,0.53
6682,0.15
6683,2.06
6684,3.44
6685,1.53
6686,-2.52
6687,-5.65
6688,-6.41
6689,-4.96
6690,-2.14
6691,0
6692,-0.46
6693,-2.82
6694,-2.75
6695,0
6696,1.6
6697,1.83
6698,1.37
6699,0.15
6700,-0.99
6701,-1.91
6702,-2.21
6703,-1.6
6704,0.38
6705,1.98
6706,-0.15
6707,-4.43
6708,-5.19
6709,-2.37
6710,0.15
6711,0.76
6712,-0.31
6713,-2.06
6714,-2.6
6715,-0.99
6716,1.37
6717,2.29
6718,0.46
6719,-2.29
6720,-2.21
6721,0.08
6722,0.92
6723,0.15
6724,0.31
6725,2.67
6726,4.66
6727,3.28
6728,-0.46
6729,-2.6
6730,-1.22
6731,0.46
6732,0.53
6733,0.76
6734,1.98
6735,2.14
6736,0.53
6737,-0.38
6738,0.08
6739,0.84
6740,1.22
6741,1.53
6742,1.22
6743,0.31
6744,0.15
6745,0.08
6746,-1.07
6747,-1.15
6748,1.22
6749,3.05
6750,2.52
6751,1.6
6752,2.29
6753,3.51
6754,2.67
6755,-0.46
6756,-2.75
6757,-2.21
6758,-0.53
6759,0
6760,-1.07
6761,-2.37
6762,-1.53
6763,0.31
6764,1.07
6765,1.45
6766,3.44
6767,5.95
6768,5.42
6769,1.83
6770,-1.45
6771,-2.6
6772,-1.45
6773,1.07
6774,3.21
6775,2.29
6776,-1.68
6777,-4.58
6778,-3.74
6779,-1.91
6780,-1.68
6781,-1.91
6782,-0.38
6783,1.53
6784,1.22
6785,-0.69
6786,-1.6
6787,-0.46
6788,1.6
6789,3.13
6790,2.29
6791,-0.15
6792,-1.07
6793,-0.23
6794,-0.76
6795,-2.21
6796,-0.92
6797,1.6
6798,1.68
6799,-0.99
6800,-3.13
6801,-1.53
6802,1.45
6803,1.45
6804,-0.69
6805,-0.69
6806,0.76
6807,0.76
6808,0.23
6809,1.22
6810,2.14
6811,0.99
6812,-0.31
6813,0.69
6814,2.75
6815,1.98
6816,-1.07
6817,-3.44
6818,-3.66
6819,-1.45
6820,0.92
6821,0.99
6822,0.61
6823,1.45
6824,1.83
6825,0.99
6826,0.46
6827,-0.15
6828,-1.22
6829,-1.45
6830,-1.45
6831,-1.68
6832,-0.84
6833,1.15
6834,2.44
6835,2.44
6836,3.28
6837,3.74
6838,1.76
6839,-0.15
6840,1.22
6841,3.36
6842,1.22
6843,-2.82
6844,-4.66
6845,-3.82
6846,-1.91
6847,0
6848,0
6849,-2.52
6850,-4.35
6851,-2.9
6852,-0.23
6853,1.45
6854,2.6
6855,2.82
6856,2.6
6857,3.13
6858,3.44
6859,2.82
6860,2.37
6861,2.52
6862,3.21
6863,3.21
6864,0.69
6865,-2.52
6866,-2.52
6867,-0.08
6868,0.69
6869,-0.31
6870,-1.45
6871,-2.67
6872,-4.35
6873,-5.27
6874,-4.58
6875,-1.91
6876,1.15
6877,2.98
6878,2.21
6879,-0.23
6880,-1.22
6881,0.15
6882,1.76
6883,1.91
6884,1.53
6885,1.83
6886,1.83
6887,0.46
6888,-1.22
6889,-1.68
6890,-0.84
6891,0
6892,0.61
6893,0.61
6894,-0.61
6895,-1.68
6896,-0.69
6897,1.53
6898,2.6
6899,1.07
6900,-0.99
6901,-1.53
6902,-1.98
6903,-3.82
6904,-4.81
6905,-3.13
6906,0.15
6907,3.36
6908,4.66
6909,3.89
6910,3.13
6911,3.28
6912,2.21
6913,-0.15
6914,-0.84
6915,1.45
6916,3.44
6917,1.83
6918,0
6919,0.53
6920,0.69
6921,-1.68
6922,-4.27
6923,-5.73
6924,-6.26
6925,-4.89
6926,-1.37
6927,2.21
6928,3.82
6929,3.82
6930,4.2
6931,4.96
6932,4.05
6933,1.22
6934,-1.3
6935,-1.83
6936,-0.69
6937,0.15
6938,0.53
6939,0
6940,-1.37
6941,-2.29
6942,-2.14
6943,-1.45
6944,-0.61
6945,-0.76
6946,-2.67
6947,-3.44
6948,-1.07
6949,0
6950,-1.3
6951,0
6952,3.13
6953,2.98
6954,0.99
6955,1.37
6956,2.98
6957,3.13
6958,2.37
6959,1.45
6960,-0.08
6961,-1.22
6962,-0.61
6963,-0.61
6964,-2.14
6965,-3.44
6966,-3.82
6967,-3.21
6968,-1.98
6969,-0.69
6970,0.76
6971,1.22
6972,-0.08
6973,-1.53
6974,-1.22
6975,-0.38
6976,-0.31
6977,0
6978,1.68
6979,3.21
6980,2.9
6981,1.15
6982,-0.53
6983,-1.37
6984,-1.68
6985,-1.3
6986,-0.23
6987,0.31
6988,-0.46
6989,-2.21
6990,-3.28
6991,-3.44
6992,-3.89
6993,-3.13
6994,-0.15
6995,2.75
6996,5.04
6997,6.72
6998,7.33
6999,5.42
7000,1.3
7001,-1.68
7002,-1.83
7003,-0.84
7004,-0.23
7005,-0.31
7006,-0.46
7007,-0.61
7008,-0.99
7009,-1.45
7010,-1.07
7011,0.46
7012,1.37
7013,1.15
7014,2.06
7015,3.21
7016,1.3
7017,-1.37
7018,-0.99
7019,1.37
7020,2.6
7021,1.98
7022,1.3
7023,1.45
7024,1.07
7025,-0.92
7026,-2.75
7027,-2.37
7028,-2.37
7029,-3.66
7030,-2.67
7031,1.53
7032,6.03
7033,7.48
7034,5.95
7035,3.89
7036,1.83
7037,-0.99
7038,-3.21
7039,-2.98
7040,-1.22
7041,-0.08
7042,-0.23
7043,-1.76
7044,-3.36
7045,-1.68
7046,1.91
7047,3.05
7048,0.69
7049,-2.67
7050,-2.9
7051,0.76
7052,3.82
7053,4.12
7054,4.43
7055,5.5
7056,4.12
7057,0.23
7058,-3.36
7059,-5.5
7060,-6.34
7061,-5.57
7062,-3.28
7063,-2.21
7064,-3.05
7065,-3.13
7066,-1.37
7067,0.38
7068,1.68
7069,3.13
7070,3.28
7071,0.46
7072,-3.44
7073,-4.89
7074,-3.97
7075,-3.36
7076,-4.27
7077,-5.8
7078,-5.65
7079,-3.21
7080,-1.98
7081,-3.97
7082,-5.88
7083,-4.66
7084,-1.3
7085,2.37
7086,4.5
7087,4.43
7088,3.21
7089,1.98
7090,2.06
7091,4.43
7092,7.18
7093,7.79
7094,7.1
7095,6.49
7096,3.51
7097,-1.3
7098,-3.36
7099,-1.53
7100,0.61
7101,0.76
7102,0.38
7103,1.15
7104,1.83
7105,1.45
7106,1.45
7107,1.98
7108,0.76
7109,-1.3
7110,-1.91
7111,-0.99
7112,0.38
7113,1.91
7114,2.21
7115,0.84
7116,-0.69
7117,-0.99
7118,-0.99
7119,-2.37
7120,-3.51
7121,-1.45
7122,2.9
7123,6.18
7124,7.1
7125,5.8
7126,2.14
7127,-1.83
7128,-4.35
7129,-4.5
7130,-2.44
7131,-0.46
7132,0
7133,0.76
7134,1.98
7135,1.76
7136,1.07
7137,1.37
7138,0.99
7139,0.31
7140,0.46
7141,-0.31
7142,-1.91
7143,-1.45
7144,0.08
7145,-0.46
7146,-2.21
7147,-1.98
7148,-0.69
7149,-0.08
7150,0
7151,-0.61
7152,-1.98
7153,-2.67
7154,-2.6
7155,-2.44
7156,-0.46
7157,3.66
7158,6.26
7159,4.2
7160,-1.07
7161,-5.19
7162,-4.27
7163,-0.38
7164,1.3
7165,-0.46
7166,-3.59
7167,-4.66
7168,-2.75
7169,-1.45
7170,-2.98
7171,-3.21
7172,0
7173,3.51
7174,4.66
7175,4.05
7176,2.9
7177,1.37
7178,0.61
7179,2.6
7180,4.27
7181,1.6
7182,-2.82
7183,-5.04
7184,-5.34
7185,-5.04
7186,-3.74
7187,-1.68
7188,0
7189,0.46
7190,0.23
7191,-0.08
7192,-0.53
7193,-0.61
7194,-0.15
7195,-0.15
7196,-1.07
7197,-2.14
7198,-2.44
7199,-2.44
7200,-2.29
7201,-1.37
7202,-0.53
7203,-0.99
7204,-1.53
7205,0.53
7206,3.36
7207,3.21
7208,0.69
7209,-1.68
7210,-2.44
7211,-2.14
7212,-1.76
7213,-0.46
7214,1.3
7215,1.37
7216,0
7217,-0.99
7218,-1.07
7219,0.38
7220,2.67
7221,2.9
7222,0.84
7223,-0.31
7224,0.76
7225,3.13
7226,4.05
7227,2.82
7228,1.76
7229,1.98
7230,2.67
7231,3.74
7232,3.44
7233,0.46
7234,-2.29
7235,-2.52
7236,-0.53
7237,0.84
7238,1.45
7239,2.67
7240,2.52
7241,-0.31
7242,-2.9
7243,-1.83
7244,1.91
7245,4.81
7246,4.96
7247,4.27
7248,4.66
7249,4.89
7250,2.67
7251,-1.45
7252,-5.34
7253,-7.56
7254,-7.25
7255,-2.75
7256,3.89
7257,6.34
7258,1.68
7259,-3.66
7260,-4.5
7261,-1.83
7262,0.53
7263,0.84
7264,1.6
7265,4.05
7266,4.05
7267,0.46
7268,-2.6
7269,-2.9
7270,-1.76
7271,-1.53
7272,-2.6
7273,-2.82
7274,-2.21
7275,-3.36
7276,-5.95
7277,-5.88
7278,-1.76
7279,2.52
7280,4.73
7281,5.73
7282,5.11
7283,1.83
7284,-1.53
7285,-1.83
7286,-0.69
7287,-0.76
7288,-0.84
7289,0.08
7290,0.99
7291,0.84
7292,0.61
7293,0.99
7294,-0.46
7295,-3.36
7296,-2.21
7297,2.75
7298,6.26
7299,5.19
7300,0
7301,-5.57
7302,-6.49
7303,-3.89
7304,-2.06
7305,0
7306,2.75
7307,2.29
7308,-0.84
7309,-2.98
7310,-3.21
7311,-1.83
7312,0.23
7313,2.82
7314,4.73
7315,3.82
7316,0.69
7317,0
7318,2.06
7319,1.76
7320,-1.3
7321,-2.6
7322,-0.61
7323,0.61
7324,-0.23
7325,0
7326,2.06
7327,3.13
7328,3.36
7329,2.9
7330,0.92
7331,-1.15
7332,-2.21
7333,-2.37
7334,-1.22
7335,-0.08
7336,0.15
7337,0.69
7338,1.3
7339,1.68
7340,1.53
7341,0
7342,-1.91
7343,-3.21
7344,-4.12
7345,-5.11
7346,-4.2
7347,0.23
7348,3.89
7349,2.75
7350,1.76
7351,2.9
7352,2.14
7353,0.69
7354,1.45
7355,2.14
7356,0.84
7357,-0.99
7358,-2.6
7359,-3.36
7360,-2.37
7361,-0.46
7362,0.38
7363,0.46
7364,0.84
7365,1.83
7366,2.67
7367,2.9
7368,3.05
7369,3.51
7370,2.82
7371,0.31
7372,-1.53
7373,-2.37
7374,-3.66
7375,-3.82
7376,-0.99
7377,2.21
7378,3.13
7379,2.75
7380,2.37
7381,1.53
7382,0.99
7383,0.92
7384,0.23
7385,-0.15
7386,0.15
7387,-0.08
7388,-0.23
7389,0.38
7390,-0.31
7391,-1.98
7392,-1.45
7393,0.53
7394,1.53
7395,1.45
7396,1.45
7397,1.45
7398,0.08
7399,-1.53
7400,-1.76
7401,-1.45
7402,-2.37
7403,-2.9
7404,-0.38
7405,4.2
7406,6.18
7407,3.21
7408,-1.22
7409,-2.67
7410,-1.83
7411,-1.22
7412,-0.92
7413,-0.23
7414,1.22
7415,2.9
7416,2.98
7417,1.53
7418,0.76
7419,1.98
7420,2.98
7421,1.45
7422,0
7423,0.53
7424,0.84
7425,-1.83
7426,-5.57
7427,-6.87
7428,-5.19
7429,-2.67
7430,-0.84
7431,1.15
7432,3.74
7433,5.8
7434,7.18
7435,6.49
7436,3.13
7437,0
7438,-1.07
7439,-1.68
7440,-2.21
7441,-2.06
7442,-1.6
7443,-0.15
7444,1.68
7445,0.53
7446,-2.82
7447,-4.2
7448,-3.21
7449,-1.53
7450,0.84
7451,2.6
7452,1.83
7453,0.38
7454,0.31
7455,1.15
7456,1.45
7457,0.76
7458,0.31
7459,0
7460,-0.92
7461,-2.21
7462,-3.13
7463,-3.66
7464,-3.66
7465,-1.68
7466,1.76
7467,3.59
7468,1.91
7469,-1.68
7470,-3.89
7471,-2.82
7472,-0.53
7473,1.07
7474,1.98
7475,2.06
7476,2.44
7477,3.21
7478,2.6
7479,0.84
7480,-0.23
7481,-0.99
7482,-2.14
7483,-2.37
7484,-0.53
7485,1.45
7486,1.83
7487,1.6
7488,1.6
7489,0.46
7490,-0.99
7491,-1.45
7492,-1.45
7493,-1.15
7494,0.38
7495,2.6
7496,2.98
7497,1.83
7498,1.22
7499,2.29
7500,4.12
7501,3.66
7502,0
7503,-3.51
7504,-3.36
7505,-1.53
7506,-1.3
7507,-1.45
7508,-1.07
7509,-1.22
7510,-0.38
7511,1.98
7512,3.13
7513,1.98
7514,0.31
7515,-0.61
7516,-0.23
7517,1.07
7518,0.84
7519,-1.76
7520,-4.2
7521,-4.66
7522,-3.51
7523,-2.21
7524,-2.98
7525,-5.5
7526,-7.18
7527,-6.34
7528,-3.89
7529,-2.37
7530,-2.67
7531,-3.21
7532,-2.21
7533,0.38
7534,2.98
7535,3.66
7536,3.82
7537,4.81
7538,4.81
7539,2.67
7540,1.76
7541,4.27
7542,6.18
7543,4.35
7544,0.92
7545,-0.69
7546,0
7547,0.61
7548,0.92
7549,1.91
7550,2.82
7551,2.67
7552,1.98
7553,1.37
7554,0.08
7555,-1.45
7556,-2.06
7557,-2.14
7558,-2.21
7559,-2.14
7560,-1.07
7561,0.15
7562,-0.38
7563,-2.44
7564,-3.05
7565,-2.14
7566,-0.92
7567,0.38
7568,1.68
7569,1.6
7570,-0.08
7571,-1.3
7572,-0.08
7573,1.45
7574,1.68
7575,2.21
7576,2.29
7577,0.76
7578,-0.31
7579,-0.99
7580,-3.13
7581,-4.81
7582,-3.82
7583,-1.6
7584,0
7585,1.53
7586,3.13
7587,2.6
7588,0.46
7589,-0.76
7590,-0.92
7591,-1.37
7592,-2.82
7593,-2.75
7594,-0.08
7595,1.76
7596,1.53
7597,1.07
7598,1.15
7599,0.61
7600,0.23
7601,1.15
7602,1.68
7603,-0.31
7604,-3.05
7605,-2.98
7606,-0.38
7607,2.44
7608,4.12
7609,3.36
7610,0.53
7611,-1.76
7612,-2.75
7613,-3.21
7614,-3.13
7615,-2.29
7616,-0.38
7617,1.6
7618,2.52
7619,3.13
7620,2.98
7621,0
7622,-3.82
7623,-5.42
7624,-4.96
7625,-3.13
7626,-0.46
7627,1.68
7628,1.76
7629,-0.08
7630,-1.22
7631,-1.37
7632,-1.68
7633,-2.14
7634,-2.82
7635,-3.89
7636,-3.21
7637,0.23
7638,4.27
7639,5.65
7640,3.59
7641,0.92
7642,0.92
7643,2.52
7644,2.06
7645,-0.99
7646,-3.05
7647,-0.99
7648,2.06
7649,2.14
7650,-0.31
7651,-2.75
7652,-3.44
7653,-1.6
7654,1.68
7655,4.27
7656,4.2
7657,2.52
7658,1.15
7659,0.38
7660,0.69
7661,1.68
7662,0.99
7663,-0.31
7664,0.53
7665,1.76
7666,2.29
7667,3.13
7668,3.97
7669,3.66
7670,2.44
7671,1.15
7672,-0.08
7673,-1.3
7674,-1.98
7675,-1.22
7676,1.91
7677,5.11
7678,4.66
7679,1.76
7680,-0.69
7681,-2.06
7682,-2.29
7683,-1.83
7684,-0.99
7685,0.84
7686,3.21
7687,4.12
7688,2.67
7689,0.31
7690,-0.61
7691,0.53
7692,1.45
7693,-0.23
7694,-2.9
7695,-3.05
7696,-0.76
7697,0.31
7698,0
7699,0
7700,-0.08
7701,-0.08
7702,0.84
7703,1.45
7704,0.15
7705,-1.07
7706,-0.84
7707,-0.08
7708,0.92
7709,0.99
7710,-1.53
7711,-3.82
7712,-3.21
7713,-1.07
7714,0.46
7715,1.6
7716,2.6
7717,2.67
7718,1.83
7719,1.45
7720,1.15
7721,0
7722,-0.76
7723,-0.69
7724,-0.23
7725,-0.23
7726,-0.76
7727,-1.76
7728,-1.22
7729,0.92
7730,1.45
7731,0
7732,-0.84
7733,-0.61
7734,-0.31
7735,-0.15
7736,-0.46
7737,-1.15
7738,-1.22
7739,-0.53
7740,0.15
7741,1.22
7742,1.76
7743,0.23
7744,-1.07
7745,0
7746,0.76
7747,-0.76
7748,-2.29
7749,-2.44
7750,-1.83
7751,-1.37
7752,-2.14
7753,-3.44
7754,-3.59
7755,-1.6
7756,2.37
7757,6.72
7758,8.02
7759,5.57
7760,2.29
7761,1.07
7762,1.83
7763,2.75
7764,3.13
7765,2.75
7766,0.38
7767,-2.9
7768,-3.82
7769,-2.06
7770,0.99
7771,3.97
7772,3.66
7773,-0.08
7774,-3.66
7775,-4.58
7776,-3.66
7777,-2.29
7778,-1.6
7779,-1.91
7780,-1.3
7781,1.45
7782,3.97
7783,4.35
7784,3.44
7785,2.6
7786,2.75
7787,3.59
7788,3.59
7789,1.15
7790,-1.68
7791,-2.21
7792,-1.6
7793,-2.06
7794,-3.05
7795,-3.59
7796,-2.67
7797,-0.69
7798,0.31
7799,-0.46
7800,-1.3
7801,-0.46
7802,0.76
7803,0.61
7804,-0.61
7805,-1.07
7806,0.23
7807,1.91
7808,1.37
7809,0
7810,0
7811,0.69
7812,1.22
7813,0.31
7814,-2.14
7815,-3.13
7816,-1.45
7817,-0.46
7818,-1.68
7819,-2.98
7820,-2.37
7821,-0.99
7822,-0.23
7823,0
7824,0
7825,0.38
7826,1.37
7827,1.53
7828,0.99
7829,0.76
7830,0.53
7831,-0.46
7832,-1.45
7833,-0.92
7834,0.53
7835,1.83
7836,1.98
7837,1.3
7838,0.38
7839,-0.99
7840,-2.14
7841,-0.92
7842,1.15
7843,0.84
7844,0
7845,0.76
7846,1.83
7847,2.6
7848,2.9
7849,1.76
7850,0.31
7851,0.08
7852,-0.38
7853,-2.29
7854,-3.51
7855,-2.44
7856,-0.08
7857,1.07
7858,0
7859,-0.61
7860,0.76
7861,3.05
7862,4.2
7863,3.13
7864,0
7865,-2.98
7866,-3.59
7867,-2.14
7868,-0.69
7869,0.23
7870,0.31
7871,-0.69
7872,-1.15
7873,-0.46
7874,-0.99
7875,-3.13
7876,-4.27
7877,-1.83
7878,2.6
7879,5.34
7880,4.89
7881,2.21
7882,-0.53
7883,-2.14
7884,-1.91
7885,-0.92
7886,0
7887,0.38
7888,-0.61
7889,-2.6
7890,-2.98
7891,-1.76
7892,0
7893,1.53
7894,2.29
7895,3.05
7896,3.13
7897,0.99
7898,-0.76
7899,0
7900,1.76
7901,1.91
7902,0.23
7903,-0.69
7904,0.38
7905,2.82
7906,3.36
7907,1.07
7908,-1.22
7909,-2.14
7910,-2.37
7911,-2.6
7912,-1.53
7913,0.61
7914,3.05
7915,4.73
7916,4.35
7917,1.98
7918,-0.61
7919,-2.44
7920,-2.21
7921,0
7922,1.76
7923,1.91
7924,0.76
7925,-1.15
7926,-2.14
7927,-0.84
7928,0.15
7929,0.23
7930,0.92
7931,2.52
7932,2.29
7933,-1.91
7934,-5.73
7935,-4.89
7936,-1.15
7937,2.44
7938,4.81
7939,4.96
7940,3.21
7941,0.31
7942,-3.05
7943,-5.04
7944,-3.66
7945,-0.46
7946,1.45
7947,2.06
7948,3.21
7949,4.43
7950,3.28
7951,0.23
7952,-1.83
7953,-1.45
7954,-0.69
7955,-1.07
7956,-0.46
7957,0.53
7958,-0.53
7959,-1.45
7960,0.23
7961,2.44
7962,2.29
7963,1.37
7964,2.29
7965,3.51
7966,2.52
7967,0.61
7968,-0.08
7969,-0.38
7970,-1.07
7971,-1.22
7972,-0.15
7973,0.53
7974,-0.38
7975,-2.06
7976,-2.9
7977,-2.29
7978,-1.68
7979,-2.9
7980,-4.43
7981,-4.73
7982,-4.89
7983,-5.95
7984,-7.56
7985,-8.4
7986,-7.33
7987,-6.49
7988,-7.18
7989,-6.18
7990,-2.98
7991,0.31
7992,3.74
7993,7.63
7994,10.46
7995,10.38
7996,7.4
7997,3.21
7998,0.31
7999,0.46
8000,1.76
8001,1.83
8002,2.21
8003,4.12
8004,5.27
8005,3.74
8006,1.45
8007,0.15
8008,-1.37
8009,-3.51
8010,-4.12
8011,-3.44
8012,-2.37
8013,-0.61
8014,0.61
8015,0.15
8016,-0.99
8017,-2.37
8018,-1.98
8019,1.22
8020,4.12
8021,4.05
8022,2.06
8023,0
8024,-0.99
8025,-0.46
8026,0.76
8027,0.76
8028,-0.23
8029,-0.92
8030,-1.83
8031,-3.28
8032,-3.36
8033,-1.76
8034,-0.08
8035,1.3
8036,3.05
8037,4.66
8038,4.5
8039,2.9
8040,1.76
8041,0.69
8042,-0.99
8043,-2.44
8044,-3.13
8045,-2.82
8046,-2.44
8047,-2.52
8048,-1.45
8049,0.69
8050,1.45
8051,0.38
8052,0
8053,0.38
8054,-0.15
8055,-1.15
8056,0
8057,2.6
8058,2.98
8059,0.53
8060,-2.44
8061,-4.58
8062,-4.05
8063,-0.84
8064,2.06
8065,2.21
8066,0.15
8067,-1.53
8068,-1.83
8069,-2.06
8070,-2.98
8071,-2.67
8072,-0.76
8073,0.38
8074,0.61
8075,1.3
8076,1.83
8077,1.07
8078,0
8079,-0.99
8080,-2.37
8081,-2.44
8082,0
8083,2.21
8084,2.37
8085,1.37
8086,0.61
8087,-0.61
8088,-3.05
8089,-4.73
8090,-3.66
8091,-1.15
8092,-0.61
8093,-0.84
8094,1.83
8095,5.73
8096,5.34
8097,2.21
8098,1.83
8099,3.21
8100,1.53
8101,-2.37
8102,-5.27
8103,-5.42
8104,-2.75
8105,0.23
8106,0.84
8107,-0.46
8108,-1.76
8109,-2.06
8110,-1.68
8111,-0.76
8112,0.76
8113,2.37
8114,2.98
8115,2.75
8116,2.14
8117,1.83
8118,1.76
8119,1.53
8120,1.53
8121,2.06
8122,2.75
8123,3.28
8124,2.6
8125,-0.08
8126,-2.75
8127,-2.98
8128,-1.37
8129,0.15
8130,0
8131,-1.68
8132,-1.98
8133,-0.46
8134,0.53
8135,1.83
8136,5.11
8137,7.63
8138,6.95
8139,4.27
8140,1.6
8141,-0.31
8142,-1.83
8143,-2.44
8144,-1.53
8145,0.46
8146,2.29
8147,2.75
8148,1.68
8149,-0.69
8150,-3.59
8151,-5.04
8152,-2.29
8153,2.82
8154,4.73
8155,2.98
8156,2.44
8157,4.12
8158,5.19
8159,4.5
8160,2.21
8161,-1.6
8162,-4.35
8163,-3.13
8164,-0.15
8165,0.84
8166,0.38
8167,-0.23
8168,-2.06
8169,-3.74
8170,-2.29
8171,1.3
8172,3.44
8173,2.52
8174,0.69
8175,0.15
8176,0.61
8177,1.37
8178,2.82
8179,3.59
8180,1.68
8181,-1.37
8182,-3.44
8183,-5.27
8184,-6.95
8185,-6.72
8186,-4.05
8187,-0.08
8188,2.9
8189,2.37
8190,0.08
8191,-0.38
8192,-0.31
8193,0
8194,1.37
8195,1.83
8196,1.15
8197,1.3
8198,1.3
8199,-0.38
8200,-2.29
8201,-2.67
8202,-1.76
8203,-0.15
8204,0.92
8205,1.15
8206,2.14
8207,3.97
8208,4.43
8209,2.21
8210,-0.61
8211,-1.98
8212,-1.98
8213,-0.84
8214,1.76
8215,3.05
8216,1.07
8217,-1.45
8218,-3.82
8219,-4.96
8220,-1.83
8221,2.6
8222,4.05
8223,3.97
8224,3.74
8225,2.14
8226,-0.15
8227,-0.99
8228,0.08
8229,2.21
8230,3.51
8231,1.83
8232,-2.14
8233,-4.89
8234,-4.58
8235,-2.6
8236,-0.53
8237,1.3
8238,2.52
8239,1.68
8240,-0.23
8241,-0.69
8242,-0.53
8243,-0.76
8244,-0.31
8245,0.46
8246,0.84
8247,1.6
8248,2.75
8249,2.14
8250,-0.61
8251,-3.74
8252,-6.03
8253,-6.18
8254,-3.36
8255,0.08
8256,1.6
8257,2.6
8258,4.89
8259,6.64
8260,5.34
8261,2.98
8262,2.21
8263,2.21
8264,1.6
8265,0.84
8266,-0.84
8267,-3.44
8268,-4.96
8269,-5.04
8270,-3.44
8271,-1.22
8272,-1.6
8273,-3.74
8274,-3.89
8275,-1.07
8276,2.67
8277,4.05
8278,3.51
8279,4.35
8280,5.95
8281,6.11
8282,4.96
8283,2.37
8284,-0.84
8285,-2.37
8286,-1.45
8287,-0.69
8288,-2.21
8289,-4.27
8290,-3.66
8291,-1.76
8292,-1.53
8293,-1.53
8294,0.31
8295,2.52
8296,3.59
8297,3.44
8298,2.44
8299,1.83
8300,2.37
8301,2.44
8302,0
8303,-3.36
8304,-4.58
8305,-2.52
8306,0
8307,0.53
8308,0.15
8309,-0.69
8310,-1.83
8311,-1.3
8312,0.23
8313,1.76
8314,3.13
8315,2.75
8316,0
8317,-1.76
8318,-1.76
8319,-2.44
8320,-2.67
8321,-1.3
8322,-0.92
8323,-2.52
8324,-3.66
8325,-2.98
8326,-0.46
8327,2.29
8328,3.59
8329,3.51
8330,3.21
8331,2.9
8332,2.98
8333,2.14
8334,0.38
8335,-1.07
8336,-3.28
8337,-5.5
8338,-5.73
8339,-4.96
8340,-4.35
8341,-3.13
8342,-0.08
8343,3.74
8344,5.5
8345,4.2
8346,2.67
8347,1.91
8348,0.08
8349,-1.07
8350,-0.08
8351,1.22
8352,1.22
8353,0.92
8354,0.15
8355,-1.45
8356,-2.37
8357,-1.53
8358,-0.53
8359,-0.99
8360,-2.6
8361,-4.2
8362,-3.44
8363,0.76
8364,5.5
8365,6.64
8366,4.2
8367,0.69
8368,-1.68
8369,-0.99
8370,1.76
8371,3.36
8372,2.9
8373,1.53
8374,-0.46
8375,-3.97
8376,-7.25
8377,-6.79
8378,-2.82
8379,0.46
8380,0.69
8381,-0.23
8382,0.31
8383,1.45
8384,1.76
8385,2.44
8386,2.6
8387,0.76
8388,0.53
8389,2.82
8390,2.82
8391,0.38
8392,-0.92
8393,-1.22
8394,-0.99
8395,0
8396,1.15
8397,2.14
8398,2.06
8399,1.37
8400,1.15
8401,1.07
8402,1.37
8403,1.37
8404,-0.31
8405,-1.91
8406,-1.15
8407,-0.38
8408,-1.83
8409,-3.51
8410,-2.98
8411,-0.92
8412,1.07
8413,2.37
8414,2.21
8415,0.61
8416,-0.46
8417,0
8418,0.61
8419,0
8420,-0.31
8421,0.84
8422,2.14
8423,1.83
8424,1.91
8425,2.75
8426,1.83
8427,0.23
8428,0.08
8429,0.69
8430,0.69
8431,-0.08
8432,0.08
8433,1.91
8434,2.21
8435,-0.76
8436,-4.35
8437,-4.5
8438,-1.83
8439,0.38
8440,1.83
8441,2.06
8442,0.84
8443,-0.61
8444,-2.14
8445,-4.43
8446,-6.49
8447,-5.57
8448,-2.9
8449,-2.98
8450,-5.8
8451,-6.95
8452,-5.42
8453,-3.44
8454,-3.97
8455,-6.11
8456,-4.96
8457,0.15
8458,4.89
8459,6.95
8460,7.86
8461,9.24
8462,9.01
8463,6.11
8464,4.12
8465,5.04
8466,5.88
8467,3.36
8468,-1.76
8469,-4.81
8470,-3.44
8471,0.31
8472,2.9
8473,2.6
8474,0.92
8475,-0.69
8476,-2.21
8477,-3.82
8478,-3.66
8479,0.61
8480,5.34
8481,5.88
8482,5.34
8483,4.66
8484,0.38
8485,-4.66
8486,-5.19
8487,-2.37
8488,-1.3
8489,-2.52
8490,-2.82
8491,-1.6
8492,-1.07
8493,-0.08
8494,2.6
8495,4.73
8496,3.89
8497,0.99
8498,-1.3
8499,-1.68
8500,0.08
8501,2.06
8502,1.45
8503,-1.22
8504,-3.74
8505,-4.27
8506,-2.6
8507,-0.31
8508,1.37
8509,2.52
8510,0.92
8511,-2.98
8512,-2.82
8513,1.91
8514,4.66
8515,3.89
8516,2.75
8517,1.37
8518,-0.92
8519,-2.52
8520,-2.29
8521,-0.38
8522,1.45
8523,1.37
8524,-0.61
8525,-1.91
8526,-1.15
8527,0.23
8528,0.92
8529,1.22
8530,1.22
8531,0.38
8532,-0.46
8533,-1.68
8534,-3.36
8535,-2.44
8536,1.53
8537,3.36
8538,0.15
8539,-3.97
8540,-4.35
8541,-1.91
8542,0.15
8543,1.15
8544,0.84
8545,-1.45
8546,-4.05
8547,-3.74
8548,-0.76
8549,1.53
8550,1.98
8551,0.99
8552,-0.84
8553,-1.91
8554,-0.76
8555,1.6
8556,1.98
8557,0
8558,-1.45
8559,-1.83
8560,-2.21
8561,-3.05
8562,-2.82
8563,-1.07
8564,0.15
8565,0.15
8566,0.08
8567,-0.31
8568,-1.37
8569,-2.75
8570,-3.51
8571,-2.9
8572,-0.84
8573,1.15
8574,1.22
8575,-0.69
8576,-2.98
8577,-4.66
8578,-4.81
8579,-3.13
8580,-0.61
8581,1.53
8582,3.21
8583,4.58
8584,5.27
8585,5.8
8586,5.88
8587,5.04
8588,3.66
8589,1.53
8590,-0.92
8591,-1.91
8592,-1.3
8593,-0.99
8594,-0.69
8595,-0.31
8596,-0.61
8597,-0.61
8598,0.76
8599,3.59
8600,6.95
8601,7.33
8602,4.58
8603,2.82
8604,2.21
8605,-0.61
8606,-3.82
8607,-3.21
8608,-0.92
8609,-0.46
8610,-0.76
8611,-0.15
8612,0.46
8613,1.15
8614,2.44
8615,3.51
8616,4.05
8617,4.66
8618,5.04
8619,4.5
8620,2.67
8621,1.07
8622,1.53
8623,3.51
8624,3.44
8625,-0.23
8626,-4.5
8627,-6.34
8628,-6.64
8629,-5.95
8630,-3.05
8631,0
8632,1.68
8633,2.98
8634,4.05
8635,4.43
8636,4.2
8637,3.21
8638,1.6
8639,0.46
8640,0.31
8641,0.15
8642,-0.76
8643,-1.91
8644,-1.98
8645,-0.92
8646,0.99
8647,2.14
8648,-0.23
8649,-3.59
8650,-4.05
8651,-3.59
8652,-4.27
8653,-3.89
8654,-1.37
8655,0.76
8656,1.45
8657,1.76
8658,1.76
8659,0.69
8660,0.69
8661,2.9
8662,3.97
8663,2.52
8664,0.69
8665,0
8666,0.46
8667,0.31
8668,-1.76
8669,-3.44
8670,-3.89
8671,-3.59
8672,-1.6
8673,0.23
8674,0.15
8675,0.08
8676,1.53
8677,2.67
8678,2.14
8679,2.06
8680,3.74
8681,4.05
8682,1.98
8683,0.23
8684,-0.23
8685,-0.76
8686,-0.99
8687,-1.37
8688,-2.82
8689,-3.36
8690,-1.3
8691,0.84
8692,1.07
8693,0.69
8694,1.07
8695,1.15
8696,1.07
8697,2.44
8698,3.97
8699,3.82
8700,2.9
8701,1.37
8702,-0.69
8703,-1.68
8704,-1.37
8705,-0.99
8706,-1.53
8707,-1.83
8708,-0.15
8709,1.68
8710,1.15
8711,-1.15
8712,-3.13
8713,-2.75
8714,0.84
8715,4.12
8716,1.76
8717,-2.75
8718,-2.44
8719,1.83
8720,4.43
8721,3.36
8722,1.3
8723,-0.08
8724,-1.53
8725,-2.14
8726,-0.61
8727,0.92
8728,0.99
8729,0.38
8730,0.53
8731,0.76
8732,-0.31
8733,-1.6
8734,-1.15
8735,0.38
8736,1.76
8737,2.14
8738,1.37
8739,1.15
8740,2.44
8741,3.89
8742,3.97
8743,1.98
8744,-1.3
8745,-2.82
8746,-1.53
8747,-0.53
8748,-1.07
8749,-1.53
8750,-1.22
8751,-0.99
8752,-2.37
8753,-3.89
8754,-2.6
8755,0.53
8756,2.29
8757,1.76
8758,0.61
8759,0
8760,-0.23
8761,-0.31
8762,0.08
8763,0.92
8764,2.6
8765,5.04
8766,5.65
8767,2.44
8768,-1.76
8769,-3.51
8770,-3.05
8771,-2.6
8772,-3.13
8773,-3.44
8774,-2.82
8775,-2.67
8776,-2.98
8777,-1.98
8778,0.08
8779,1.91
8780,3.21
8781,3.59
8782,2.75
8783,1.68
8784,0.38
8785,-1.3
8786,-1.3
8787,1.22
8788,3.59
8789,3.36
8790,1.07
8791,-1.07
8792,-2.44
8793,-3.59
8794,-4.2
8795,-4.12
8796,-3.97
8797,-3.66
8798,-2.21
8799,0.08
8800,1.68
8801,2.21
8802,2.6
8803,2.6
8804,1.76
8805,0.53
8806,-0.53
8807,-0.61
8808,0.69
8809,1.07
8810,-0.08
8811,-0.53
8812,0.23
8813,0.53
8814,0.53
8815,0.38
8816,-1.6
8817,-4.58
8818,-5.65
8819,-4.43
8820,-1.07
8821,2.14
8822,2.52
8823,1.98
8824,2.21
8825,0.69
8826,-1.83
8827,-0.92
8828,1.76
8829,0.69
8830,-2.21
8831,-2.52
8832,-0.99
8833,0.38
8834,0.76
8835,-0.15
8836,-0.76
8837,-0.15
8838,0.38
8839,1.37
8840,3.44
8841,3.44
8842,0.61
8843,-1.07
8844,-0.15
8845,1.53
8846,1.91
8847,0.46
8848,-1.45
8849,-2.82
8850,-2.67
8851,-1.37
8852,-0.38
8853,0
8854,-0.23
8855,0.23
8856,2.29
8857,3.44
8858,2.06
8859,0.84
8860,0.69
8861,-0.08
8862,-0.92
8863,0
8864,0.15
8865,-2.37
8866,-5.19
8867,-5.42
8868,-3.28
8869,-1.15
8870,-0.53
8871,-0.99
8872,-1.15
8873,0.38
8874,1.68
8875,1.07
8876,0
8877,-0.69
8878,-0.99
8879,-0.69
8880,0.61
8881,2.67
8882,3.74
8883,2.9
8884,2.67
8885,3.89
8886,3.21
8887,0.15
8888,-1.07
8889,-0.08
8890,-0.31
8891,-2.44
8892,-3.36
8893,-2.06
8894,-0.69
8895,0
8896,0.92
8897,2.06
8898,1.68
8899,-0.61
8900,-1.98
8901,-1.37
8902,0
8903,-0.08
8904,-1.91
8905,-1.83
8906,1.07
8907,3.21
8908,3.28
8909,2.21
8910,0.61
8911,-0.53
8912,-0.15
8913,1.45
8914,2.37
8915,1.68
8916,0.46
8917,-0.92
8918,-2.14
8919,-1.37
8920,0.38
8921,0.38
8922,-1.15
8923,-1.83
8924,-0.23
8925,2.9
8926,4.73
8927,2.52
8928,-2.29
8929,-5.11
8930,-4.27
8931,-3.21
8932,-3.51
8933,-3.28
8934,-3.28
8935,-5.19
8936,-7.1
8937,-7.86
8938,-7.63
8939,-5.65
8940,-1.53
8941,2.82
8942,5.19
8943,4.96
8944,4.27
8945,4.58
8946,5.04
8947,6.26
8948,8.85
8949,10.23
8950,7.33
8951,1.68
8952,-2.14
8953,-3.28
8954,-2.37
8955,-0.38
8956,0.61
8957,-0.69
8958,-2.9
8959,-3.89
8960,-2.75
8961,-0.23
8962,1.98
8963,2.37
8964,0.69
8965,-0.99
8966,-1.3
8967,-0.23
8968,1.07
8969,1.15
8970,0.08
8971,-0.08
8972,0.23
8973,-0.15
8974,-1.15
8975,-0.99
8976,-0.38
8977,-0.08
8978,0.15
8979,0.38
8980,0
8981,-0.46
8982,0.31
8983,1.6
8984,1.37
8985,1.15
8986,1.6
8987,0.76
8988,-1.22
8989,-2.52
8990,-3.28
8991,-2.82
8992,-0.61
8993,0.61
8994,-0.76
8995,-2.9
8996,-3.05
8997,-0.84
8998,1.22
8999,1.37
9000,1.37
9001,1.6
9002,0.92
9003,0
9004,0
9005,0.38
9006,0.08
9007,-0.31
9008,-1.22
9009,-3.13
9010,-3.97
9011,-2.82
9012,-1.07
9013,-0.15
9014,-0.69
9015,-1.91
9016,-1.53
9017,0
9018,1.45
9019,3.21
9020,4.5
9021,4.12
9022,2.06
9023,0.15
9024,0.99
9025,2.67
9026,1.6
9027,-1.22
9028,-2.37
9029,-1.98
9030,-2.52
9031,-4.27
9032,-5.65
9033,-6.34
9034,-6.49
9035,-5.27
9036,-3.36
9037,-2.06
9038,-1.53
9039,-0.69
9040,0.08
9041,-0.08
9042,-1.07
9043,-0.92
9044,0
9045,-1.6
9046,-4.96
9047,-4.2
9048,0
9049,1.53
9050,-0.38
9051,-2.44
9052,-3.44
9053,-4.81
9054,-6.49
9055,-7.02
9056,-7.25
9057,-9.08
9058,-10.15
9059,-8.4
9060,-5.57
9061,-2.98
9062,-0.38
9063,1.45
9064,1.68
9065,1.15
9066,0.61
9067,0.23
9068,0.23
9069,0
9070,0.46
9071,2.67
9072,3.89
9073,3.44
9074,2.37
9075,0.53
9076,-1.6
9077,-1.98
9078,0.99
9079,4.12
9080,4.66
9081,3.74
9082,2.37
9083,2.29
9084,3.89
9085,3.51
9086,0.99
9087,-0.31
9088,-0.46
9089,-0.31
9090,0.61
9091,1.45
9092,0.15
9093,-1.22
9094,-1.15
9095,-1.83
9096,-3.36
9097,-2.98
9098,-0.53
9099,1.91
9100,3.82
9101,4.35
9102,2.98
9103,1.53
9104,0.92
9105,0
9106,-0.46
9107,1.3
9108,3.36
9109,2.06
9110,-1.15
9111,-2.82
9112,-2.29
9113,-0.84
9114,-0.08
9115,0.31
9116,1.83
9117,2.75
9118,1.91
9119,1.68
9120,2.14
9121,1.6
9122,0.46
9123,-0.31
9124,-0.53
9125,0
9126,0.76
9127,1.07
9128,0.38
9129,-0.99
9130,-0.84
9131,1.45
9132,3.66
9133,4.27
9134,3.89
9135,2.14
9136,-1.98
9137,-5.88
9138,-5.27
9139,-1.83
9140,0.31
9141,0.31
9142,-0.76
9143,-1.45
9144,-0.61
9145,1.83
9146,4.73
9147,6.18
9148,5.57
9149,3.82
9150,1.45
9151,-0.15
9152,-0.53
9153,0
9154,1.37
9155,1.83
9156,-0.76
9157,-4.05
9158,-4.05
9159,-0.15
9160,3.13
9161,2.82
9162,1.76
9163,2.52
9164,3.28
9165,2.6
9166,1.98
9167,2.37
9168,2.14
9169,0.46
9170,-1.22
9171,-2.6
9172,-2.67
9173,0
9174,4.12
9175,5.42
9176,2.9
9177,-0.08
9178,-1.15
9179,-1.15
9180,-0.23
9181,2.44
9182,4.89
9183,4.12
9184,0.69
9185,-2.67
9186,-3.28
9187,-1.22
9188,0.92
9189,1.98
9190,0.99
9191,-1.83
9192,-3.44
9193,-2.29
9194,-1.53
9195,-2.44
9196,-2.67
9197,-1.37
9198,0.08
9199,1.83
9200,4.43
9201,5.95
9202,4.5
9203,1.76
9204,-0.08
9205,-0.53
9206,0
9207,0.23
9208,-0.15
9209,-1.6
9210,-4.2
9211,-5.95
9212,-3.82
9213,0.31
9214,1.83
9215,1.53
9216,2.37
9217,2.75
9218,1.3
9219,0
9220,-0.53
9221,0
9222,1.68
9223,3.05
9224,3.05
9225,1.98
9226,0.23
9227,-0.61
9228,-0.08
9229,-0.76
9230,-1.83
9231,-0.31
9232,1.83
9233,1.15
9234,-1.37
9235,-2.44
9236,-1.53
9237,-1.3
9238,-2.67
9239,-3.05
9240,-1.07
9241,1.37
9242,1.68
9243,1.68
9244,3.05
9245,2.29
9246,-1.37
9247,-3.97
9248,-2.67
9249,0.99
9250,3.13
9251,2.14
9252,-0.15
9253,-1.3
9254,-0.08
9255,2.21
9256,3.05
9257,1.3
9258,-0.38
9259,-0.46
9260,-0.23
9261,-0.38
9262,1.07
9263,3.89
9264,3.89
9265,0.84
9266,-1.53
9267,-3.21
9268,-5.11
9269,-4.66
9270,-1.76
9271,1.45
9272,3.66
9273,3.36
9274,1.15
9275,-0.38
9276,-0.53
9277,0.38
9278,1.45
9279,0.46
9280,-1.6
9281,-2.44
9282,-2.14
9283,-1.6
9284,-0.92
9285,0.23
9286,1.91
9287,2.98
9288,2.82
9289,1.91
9290,1.15
9291,0.31
9292,-0.76
9293,-1.68
9294,-1.53
9295,-0.61
9296,-0.23
9297,-0.08
9298,0.23
9299,0.84
9300,1.3
9301,0.69
9302,-0.46
9303,0
9304,1.91
9305,3.21
9306,3.82
9307,4.5
9308,3.97
9309,0.99
9310,-2.82
9311,-3.82
9312,-1.98
9313,-0.76
9314,-0.99
9315,-1.3
9316,-1.6
9317,-1.6
9318,0
9319,1.22
9320,0.61
9321,-0.69
9322,-1.45
9323,-0.38
9324,1.3
9325,0.23
9326,-2.9
9327,-4.05
9328,-1.37
9329,2.44
9330,2.37
9331,-1.91
9332,-4.27
9333,-1.91
9334,0.53
9335,1.6
9336,2.67
9337,3.28
9338,2.98
9339,1.6
9340,-0.23
9341,0
9342,1.98
9343,3.59
9344,4.43
9345,4.27
9346,2.6
9347,0.76
9348,-0.15
9349,-0.38
9350,0.15
9351,0.99
9352,0.92
9353,0.31
9354,0.99
9355,3.59
9356,4.66
9357,2.37
9358,-1.07
9359,-2.52
9360,-1.53
9361,-0.84
9362,-1.45
9363,-1.76
9364,-2.29
9365,-3.36
9366,-2.21
9367,0.61
9368,1.07
9369,-1.07
9370,-2.6
9371,-2.37
9372,0.08
9373,3.36
9374,2.6
9375,-1.15
9376,-2.98
9377,-1.83
9378,-0.08
9379,0.53
9380,-0.84
9381,-2.98
9382,-3.05
9383,-1.68
9384,-1.68
9385,-2.6
9386,-1.98
9387,-0.69
9388,-0.76
9389,-1.3
9390,-1.3
9391,-1.68
9392,-2.37
9393,-5.11
9394,-9.01
9395,-9.31
9396,-6.34
9397,-3.82
9398,-1.91
9399,0.53
9400,2.82
9401,3.89
9402,5.11
9403,7.1
9404,7.79
9405,5.88
9406,2.52
9407,0.46
9408,1.15
9409,1.68
9410,0.69
9411,0.23
9412,0.61
9413,0.84
9414,0.99
9415,0.84
9416,0.53
9417,0.15
9418,-1.15
9419,-2.75
9420,-2.29
9421,0
9422,1.45
9423,0.76
9424,-0.76
9425,-0.92
9426,-0.61
9427,-2.37
9428,-4.5
9429,-3.82
9430,-0.08
9431,3.97
9432,5.65
9433,4.2
9434,1.15
9435,-1.91
9436,-3.51
9437,-3.13
9438,-2.98
9439,-4.05
9440,-3.82
9441,-0.61
9442,2.67
9443,3.36
9444,3.05
9445,2.67
9446,0.61
9447,-1.53
9448,-0.99
9449,0.38
9450,0.15
9451,-0.61
9452,-0.46
9453,-0.38
9454,-0.99
9455,-1.53
9456,-2.21
9457,-3.59
9458,-2.9
9459,0.99
9460,2.06
9461,-1.45
9462,-2.82
9463,0.08
9464,2.21
9465,0.92
9466,-1.3
9467,-2.52
9468,-2.6
9469,-1.37
9470,0.08
9471,0.23
9472,-0.31
9473,0
9474,-0.08
9475,-2.37
9476,-3.82
9477,-1.83
9478,1.07
9479,2.14
9480,2.37
9481,3.66
9482,5.19
9483,4.96
9484,2.37
9485,0
9486,-0.92
9487,-2.67
9488,-6.03
9489,-8.02
9490,-6.87
9491,-3.74
9492,-1.3
9493,-0.69
9494,-0.92
9495,-0.92
9496,-1.68
9497,-1.91
9498,0.23
9499,2.98
9500,3.51
9501,1.98
9502,-0.08
9503,-0.99
9504,-0.84
9505,-0.61
9506,-0.46
9507,-1.83
9508,-4.35
9509,-5.88
9510,-5.34
9511,-3.89
9512,-3.21
9513,-2.44
9514,-0.92
9515,0.76
9516,1.83
9517,2.29
9518,3.28
9519,4.2
9520,3.36
9521,1.76
9522,1.15
9523,0.46
9524,-1.22
9525,-3.05
9526,-3.82
9527,-3.51
9528,-1.45
9529,1.45
9530,1.83
9531,-0.53
9532,-2.21
9533,-1.53
9534,0
9535,1.76
9536,4.43
9537,6.41
9538,5.88
9539,3.74
9540,2.29
9541,1.68
9542,1.07
9543,-0.08
9544,-1.07
9545,0.08
9546,3.59
9547,5.88
9548,5.04
9549,3.21
9550,1.6
9551,-0.99
9552,-3.59
9553,-2.9
9554,0.46
9555,2.44
9556,1.6
9557,0.46
9558,0.23
9559,0.38
9560,-0.08
9561,-2.06
9562,-3.82
9563,-2.29
9564,0.23
9565,0.53
9566,0.46
9567,1.76
9568,2.98
9569,3.05
9570,1.83
9571,0.08
9572,-1.6
9573,-2.37
9574,-2.37
9575,-1.76
9576,0.38
9577,3.44
9578,3.74
9579,1.15
9580,-0.76
9581,-0.84
9582,-0.46
9583,1.15
9584,3.51
9585,3.66
9586,2.21
9587,1.15
9588,0
9589,-1.07
9590,-1.83
9591,-2.14
9592,-2.44
9593,-2.82
9594,-3.21
9595,-3.36
9596,-1.91
9597,0.53
9598,1.07
9599,0.53
9600,1.3
9601,1.07
9602,-0.08
9603,-0.99
9604,-2.14
9605,-2.29
9606,-0.84
9607,-0.84
9608,-2.21
9609,-2.75
9610,-2.14
9611,-1.3
9612,-0.92
9613,-0.15
9614,1.22
9615,1.76
9616,1.37
9617,1.83
9618,3.21
9619,3.74
9620,2.37
9621,1.22
9622,1.45
9623,1.83
9624,2.67
9625,3.44
9626,1.3
9627,-3.51
9628,-7.18
9629,-5.95
9630,-1.83
9631,0.38
9632,0.76
9633,0.92
9634,1.53
9635,2.6
9636,3.21
9637,3.59
9638,3.97
9639,3.05
9640,0.99
9641,-0.15
9642,-0.31
9643,-0.38
9644,-0.61
9645,-0.84
9646,-1.37
9647,-2.6
9648,-4.35
9649,-4.66
9650,-2.44
9651,0.08
9652,0.92
9653,0.76
9654,0.08
9655,-1.76
9656,-4.35
9657,-3.82
9658,0.15
9659,2.29
9660,1.83
9661,1.91
9662,1.45
9663,-0.15
9664,-0.84
9665,-0.53
9666,-0.53
9667,-0.53
9668,-0.53
9669,-0.76
9670,-0.15
9671,1.3
9672,1.68
9673,0.38
9674,-1.83
9675,-4.43
9676,-5.04
9677,-2.75
9678,0.99
9679,4.73
9680,6.26
9681,5.04
9682,2.9
9683,0.76
9684,-1.83
9685,-4.12
9686,-4.27
9687,-2.37
9688,0.15
9689,2.9
9690,4.5
9691,3.13
9692,-0.15
9693,-1.91
9694,-1.53
9695,-1.68
9696,-1.15
9697,1.98
9698,4.89
9699,4.35
9700,2.37
9701,0.61
9702,-0.61
9703,0.08
9704,1.3
9705,-0.53
9706,-4.05
9707,-5.5
9708,-4.2
9709,-1.6
9710,0.08
9711,-0.15
9712,-1.37
9713,-1.6
9714,0.23
9715,2.67
9716,2.29
9717,0.38
9718,-0.23
9719,-0.46
9720,-0.99
9721,0
9722,3.44
9723,6.26
9724,5.19
9725,-0.08
9726,-3.89
9727,-1.45
9728,2.67
9729,3.51
9730,3.36
9731,3.44
9732,2.14
9733,-0.15
9734,-2.21
9735,-3.36
9736,-3.74
9737,-2.82
9738,-1.07
9739,0.08
9740,-0.31
9741,-1.53
9742,-1.6
9743,-0.69
9744,-0.31
9745,-1.37
9746,-2.44
9747,-1.07
9748,2.21
9749,4.58
9750,4.12
9751,1.53
9752,-0.53
9753,-0.31
9754,0.84
9755,0.99
9756,0.76
9757,0.99
9758,0.38
9759,-0.92
9760,-2.14
9761,-3.51
9762,-4.5
9763,-3.66
9764,-1.91
9765,-1.3
9766,-2.52
9767,-3.66
9768,-1.76
9769,2.06
9770,2.98
9771,-0.38
9772,-3.59
9773,-3.44
9774,-1.15
9775,1.37
9776,2.75
9777,2.6
9778,1.15
9779,-1.37
9780,-3.21
9781,-2.82
9782,-0.69
9783,1.83
9784,3.66
9785,4.27
9786,3.51
9787,1.91
9788,0.69
9789,0.23
9790,-0.38
9791,-2.21
9792,-3.97
9793,-4.2
9794,-2.52
9795,-0.23
9796,0.31
9797,-1.45
9798,-3.97
9799,-4.58
9800,-2.82
9801,0.53
9802,5.19
9803,9.01
9804,8.63
9805,3.13
9806,-2.82
9807,-4.81
9808,-3.36
9809,-1.37
9810,-0.53
9811,-0.38
9812,-0.08
9813,0.53
9814,1.45
9815,1.98
9816,0.92
9817,-1.22
9818,-1.91
9819,-0.92
9820,0.38
9821,1.83
9822,2.9
9823,3.05
9824,2.14
9825,0.84
9826,-1.15
9827,-3.13
9828,-3.05
9829,-1.3
9830,0.46
9831,2.9
9832,5.65
9833,5.8
9834,2.37
9835,-1.6
9836,-3.59
9837,-2.6
9838,-0.15
9839,0.53
9840,0
9841,0.15
9842,0.15
9843,0
9844,0.31
9845,1.15
9846,1.37
9847,0.38
9848,-0.46
9849,-0.92
9850,-1.22
9851,-1.07
9852,-0.15
9853,0.84
9854,0.84
9855,0.61
9856,1.45
9857,1.68
9858,0
9859,-1.6
9860,-0.92
9861,1.68
9862,2.9
9863,1.3
9864,-0.61
9865,-1.37
9866,-2.14
9867,-2.37
9868,-1.15
9869,0.38
9870,0.69
9871,-0.15
9872,0.69
9873,3.82
9874,4.89
9875,2.29
9876,-0.99
9877,-2.44
9878,-2.44
9879,-2.37
9880,-1.68
9881,-0.53
9882,0.15
9883,0.23
9884,-0.23
9885,-1.53
9886,-2.29
9887,-2.21
9888,-3.28
9889,-5.65
9890,-6.72
9891,-5.57
9892,-3.36
9893,-1.98
9894,-2.82
9895,-4.12
9896,-3.05
9897,-1.76
9898,-2.6
9899,-3.44
9900,-2.21
9901,0.31
9902,3.44
9903,5.65
9904,6.41
9905,5.65
9906,3.28
9907,1.07
9908,1.83
9909,5.04
9910,7.1
9911,6.95
9912,5.8
9913,4.5
9914,3.74
9915,2.52
9916,0
9917,-3.21
9918,-4.66
9919,-3.74
9920,-2.21
9921,-1.3
9922,-1.07
9923,-1.53
9924,-2.9
9925,-4.5
9926,-3.89
9927,-0.84
9928,1.68
9929,3.21
9930,4.5
9931,4.81
9932,2.98
9933,0.08
9934,-1.37
9935,-1.22
9936,-0.84
9937,0.46
9938,2.67
9939,2.21
9940,-0.84
9941,-3.21
9942,-4.43
9943,-5.19
9944,-4.35
9945,-2.75
9946,-1.37
9947,0.61
9948,3.13
9949,4.43
9950,3.74
9951,1.68
9952,-0.08
9953,-0.61
9954,-0.61
9955,-0.38
9956,0.31
9957,1.22
9958,1.07
9959,-0.69
9960,-3.21
9961,-4.58
9962,-3.97
9963,-1.07
9964,1.45
9965,0.69
9966,-0.84
9967,0
9968,1.98
9969,2.06
9970,-0.31
9971,-3.51
9972,-4.43
9973,-3.05
9974,-1.37
9975,-0.53
9976,-0.92
9977,-1.76
9978,-2.29
9979,-2.14
9980,-0.31
9981,1.91
9982,1.68
9983,-0.15
9984,-1.22
9985,-1.45
9986,-1.15
9987,0.08
9988,0.76
9989,-0.46
9990,-2.06
9991,-1.91
9992,-1.37
9993,-2.14
9994,-3.44
9995,-3.66
9996,-3.28
9997,-2.98
9998,-2.29
9999,-1.76
10000,-0.84
10001,1.15
10002,1.98
10003,0.08
10004,-2.14
10005,-3.05
10006,-2.67
10007,-1.07
10008,-0.76
10009,-2.98
10010,-4.12
10011,-1.83
10012,1.53
10013,2.9
10014,2.75
10015,2.37
10016,1.3
10017,0.76
10018,1.68
10019,1.91
10020,0.92
10021,0.15
10022,0.15
10023,0.61
10024,0.92
10025,0.61
10026,0.15
10027,-0.84
10028,-1.76
10029,-1.83
10030,-2.52
10031,-1.91
10032,1.83
10033,4.12
10034,2.67
10035,2.06
10036,2.98
10037,2.29
10038,1.45
10039,2.9
10040,4.35
10041,3.05
10042,0.38
10043,-0.99
10044,-1.07
10045,-0.53
10046,0.84
10047,2.6
10048,3.05
10049,1.98
10050,1.15
10051,0.99
10052,0.61
10053,-0.38
10054,-2.14
10055,-2.44
10056,0.46
10057,4.2
10058,5.65
10059,3.66
10060,0.15
10061,-1.53
10062,-0.61
10063,1.76
10064,4.35
10065,4.05
10066,0.46
10067,-2.67
10068,-4.5
10069,-5.11
10070,-3.82
10071,-1.22
10072,0.15
10073,-0.15
10074,-1.37
10075,-1.6
10076,0.76
10077,3.36
10078,1.15
10079,-3.74
10080,-4.66
10081,-1.76
10082,-0.76
10083,-1.91
10084,-2.06
10085,-1.07
10086,-0.53
10087,-0.08
10088,1.15
10089,1.6
10090,-0.08
10091,-2.6
10092,-2.98
10093,-1.83
10094,-1.98
10095,-2.98
10096,-2.75
10097,-1.3
10098,-0.38
10099,0.08
10100,0.84
10101,0.99
10102,0
10103,-0.31
10104,0.46
10105,0.31
10106,-0.53
10107,0
10108,0.92
10109,0
10110,-0.61
10111,-0.84
10112,-1.91
10113,-2.44
10114,-1.45
10115,0.46
10116,1.53
10117,1.6
10118,2.14
10119,3.28
10120,4.43
10121,4.43
10122,2.37
10123,-0.76
10124,-3.28
10125,-4.43
10126,-4.2
10127,-2.9
10128,-2.14
10129,-1.76
10130,0.38
10131,3.28
10132,3.28
10133,0.15
10134,-3.51
10135,-5.65
10136,-3.44
10137,0.84
10138,2.75
10139,2.98
10140,2.44
10141,0.23
,-1.6
,-0.92
,1.37
,2.75
,1.68
,-0.15
,0
,2.9
,4.96
,3.59
,0.46
,-1.83
,-3.36
,-5.11
,-6.03
,-4.73
,-1.98
,0.84
,2.52
,2.44
,2.29
,2.9
,3.59
,2.9
,1.15
,0.84
,1.53
,0.61
,-1.3
,-2.21
,-2.21
,-2.37
,-2.67
,-2.52
,-2.21
,-2.29
,-2.44
,-1.83
,0
,2.67
,5.19
,5.19
,2.06
,-1.22
,-2.21
,-1.6
,-1.45
,-2.75
,-3.51
,-2.82
,-2.21
,-2.6
,-2.75
,-1.22
,0.31
,0.15
,0.23
,1.83
,2.6
,1.37
,0
,0.31
,1.68
,2.21
,2.75
,3.21
,1.45
,-0.46
,-0.31
,-0.23
,-1.07
,-2.29
,-3.97
,-4.5
,-1.83
,1.07
,1.22
,0.23
,1.22
,3.82
,4.96
,2.82
,-0.46
,-1.83
,-0.69
,-0.15
,-1.3
,-1.91
,0.38
,4.2
,4.43
,-0.15
,-3.51
,-1.83
,1.45
,2.98
,3.28
,2.6
,0.53
,-0.99
,0.31
,2.52
,2.06
,0
,-1.68
,-1.91
,-1.68
,-1.98
,-2.67
,-2.21
,-0.38
,1.15
,1.3
,1.07
,1.98
,3.97
,4.2
,1.3
,-1.91
,-2.98
,-3.59
,-4.35
,-3.89
,-1.83
,-0.31
,-1.76
,-4.12
,-2.06
,3.13
,6.72
,7.18
,5.73
,4.12
,2.98
,2.29
,0.08
,-5.04
,-9.54
,-9.47
,-5.5
,-1.22
,1.6
,3.66
,4.43
,2.98
,1.15
,0.92
,1.98
,2.44
,0.76
,-1.91
,-2.82
,-1.22
,0.61
,2.67
,3.74
,0.84
,-3.51
,-4.81
,-4.27
,-4.05
,-2.6
,0.38
,2.14
,1.37
,-0.23
,-1.53
,-2.06
,-1.45
,-0.15
,1.15
,2.14
,2.75
,2.52
,2.6
,2.9
,1.6
,-1.98
,-5.65
,-6.03
,-3.21
,-1.07
,-0.46
,-0.53
,-2.06
,-3.82
,-2.9
,-0.46
,0.92
,1.37
,1.37
,1.76
,2.52
,3.66
,5.5
,5.19
,1.3
,-1.76
,-0.46
,2.37
,2.44
,0.46
,-0.46
,-0.38
,-1.07
,-2.6
,-2.67
,-1.3
,0
,1.15
,1.91
,1.83
,1.15
,0
,-0.08
,1.98
,4.12
,2.75
,-1.45
,-4.5
,-4.43
,-1.83
,1.91
,4.96
,5.34
,2.75
,-0.92
,-3.44
,-3.51
,-2.82
,-2.82
,-2.6
,-1.76
,-1.07
,-0.08
,1.22
,1.53
,2.29
,5.19
,5.95
,1.83
,-3.13
,-4.58
,-2.6
,-0.53
,-1.37
,-4.12
,-4.96
,-3.82
,-3.13
,-3.28
,-3.44
,-3.44
,-3.74
,-5.11
,-6.64
,-5.27
,-1.76
,-0.38
,-2.52
,-5.11
,-4.66
,-1.07
,3.13
,5.65
,6.95
,7.86
,6.95
,5.65
,6.34
,6.49
,3.74
,0.15
,-1.22
,0
,1.22
,0.76
,0.23
,1.22
,0.53
,-1.83
,-1.68
,0.69
,0.69
,-1.68
,-2.9
,-2.67
,-3.28
,-3.66
,-2.06
,-0.61
,-0.53
,1.07
,4.2
,4.58
,1.91
,0
,0
,0.15
,-0.31
,0
,0.15
,-2.37
,-5.88
,-6.18
,-3.13
,-0.53
,0
,-0.53
,-0.76
,-0.08
,0.69
,-0.15
,-1.15
,0.38
,2.37
,1.76
,-0.46
,-1.68
,-1.45
,-0.69
,0.53
,1.83
,2.29
,2.9
,3.97
,3.74
,1.45
,-0.61
,-1.22
,-1.45
,-2.06
,-2.14
,-1.45
,-0.92
,-1.37
,-3.44
,-5.8
,-5.8
,-1.45
,3.97
,4.58
,1.53
,-0.08
,-0.61
,-1.76
,-1.3
,2.44
,6.41
,6.95
,3.28
,-2.14
,-5.5
,-6.03
,-5.19
,-2.82
,-0.76
,-0.92
,-2.6
,-4.2
,-3.97
,-2.37
,-1.22
,-0.31
,0.92
,0.23
,-1.15
,0.31
,2.37
,1.53
,0.23
,0.92
,1.91
,1.98
,1.76
,0.53
,-2.29
,-5.27
,-6.56
,-6.11
,-4.05
,-0.99
,0.76
,0.61
,-0.46
,-1.83
,-2.06
,0.23
,3.82
,5.19
,3.51
,2.37
,2.98
,2.75
,1.07
,0.15
,0.08
,0.15
,0.84
,2.37
,3.74
,3.89
,2.75
,1.15
,-0.23
,-1.22
,-1.91
,-2.21
,-0.92
,1.68
,3.51
,3.59
,3.05
,2.82
,3.36
,2.82
,0.46
,-1.98
,-3.89
,-5.42
,-6.11
,-5.42
,-3.13
,-0.61
,1.22
,3.59
,6.49
,6.87
,3.66
,0.69
,0.69
,1.76
,1.3
,-0.31
,-1.98
,-3.28
,-4.73
,-5.11
,-3.44
,-1.53
,-0.99
,-1.45
,-0.23
,3.13
,5.04
,4.05
,3.05
,2.9
,2.06
,0.84
,0.38
,0.08
,-1.22
,-2.98
,-3.21
,-1.53
,0.23
,1.76
,3.66
,4.43
,3.13
,0.31
,-1.91
,-1.68
,0.08
,1.22
,1.22
,0.46
,-0.53
,-1.3
,-0.53
,0.84
,0.84
,0.69
,1.91
,2.29
,0.53
,-1.15
,-1.76
,-2.14
,-1.3
,1.37
,2.98
,2.21
,0.46
,-1.53
,-2.98
,-2.9
,-2.14
,-2.37
,-2.44
,-0.99
,0.38
,0.61
,0.31
,0.69
,2.75
,4.89
,3.13
,-0.92
,-3.05
,-2.21
,0.46
,2.6
,1.91
,-0.84
,-3.44
,-3.66
,-1.22
,0.69
,0.31
,-1.3
,-2.21
,-1.83
,-1.15
,0.08
,1.53
,1.45
,0.23
,-0.23
,-0.53
,-1.15
,-0.69
,1.53
,3.44
,2.21
,-1.6
,-3.74
,-3.51
,-3.66
,-3.36
,-1.3
,1.37
,2.6
,0.99
,-0.92
,-0.08
,1.83
,2.52
,1.37
,-0.38
,-1.3
,-1.37
,-1.22
,0.46
,2.98
,3.51
,2.75
,2.6
,1.68
,-0.84
,-2.14
,-0.99
,-0.92
,-2.98
,-3.21
,0.92
,5.19
,4.89
,1.83
,-0.08
,-1.22
,-2.67
,-3.05
,-0.99
,2.98
,6.26
,5.57
,2.14
,-1.45
,-5.65
,-8.55
,-6.79
,-2.9
,-1.15
,-0.76
,-0.61
,-1.6
,-3.51
,-3.89
,-1.45
,2.37
,4.73
,3.66
,0.46
,-1.45
,-0.46
,3.44
,6.56
,4.66
,0
,-2.37
,-1.98
,-0.53
,0.46
,0.69
,0.92
,1.22
,0.69
,-0.31
,-1.37
,-1.76
,-1.07
,0.15
,1.6
,2.9
,3.44
,2.6
,1.37
,0.84
,1.07
,2.14
,2.37
,-0.38
,-3.21
,-2.52
,-1.45
,-2.14
,-1.45
,1.15
,3.74
,4.5
,2.82
,0.15
,-2.14
,-3.13
,-1.15
,2.06
,2.75
,0.23
,-1.91
,-0.53
,2.37
,2.98
,1.83
,0.99
,-0.15
,-1.15
,0.92
,4.89
,5.27
,1.45
,-2.6
,-4.81
,-4.58
,-2.98
,-2.44
,-3.28
,-3.97
,-2.9
,-0.23
,1.6
,1.3
,0.53
,-0.15
,-1.22
,-0.69
,2.14
,4.05
,3.28
,1.76
,0.69
,-1.22
,-4.5
,-5.34
,-3.13
,-1.83
,-2.06
,-1.76
,-1.15
,-0.61
,0.46
,0.92
,-0.92
,-4.43
,-6.26
,-3.51
,1.45
,4.27
,3.89
,2.37
,1.45
,0.46
,-0.61
,-0.53
,1.15
,2.37
,1.3
,-0.69
,-1.83
,-1.37
,-0.53
,-0.84
,-2.44
,-3.36
,-2.75
,-1.6
,-0.53
,0
,-0.69
,-2.29
,-3.05
,-2.6
,-2.21
,-0.23
,3.44
,4.58
,3.21
,2.9
,3.13
,1.76
,-0.08
,-0.38
,0.38
,0.08
,-1.6
,-2.44
,-1.68
,-0.31
,0.38
,-0.61
,-1.76
,-0.99
,0.92
,2.82
,3.51
,2.75
,1.76
,0.53
,-0.46
,0.46
,1.98
,1.83
,0.99
,0.92
,0.76
,-0.08
,-0.84
,-0.76
,-0.92
,-1.68
,-2.14
,-1.83
,-0.38
,0.84
,1.22
,1.37
,1.3
,1.15
,0.53
,-1.45
,-3.05
,-1.15
,2.67
,4.05
,2.21
,-0.23
,-2.06
,-3.36
,-4.81
,-6.56
,-7.25
,-5.42
,-2.06
,-0.23
,-1.37
,-3.13
,-2.75
,-0.61
,0
,-1.91
,-3.97
,-4.43
,-4.12
,-2.52
,0.69
,4.27
,5.73
,4.12
,2.21
,2.9
,5.34
,7.94
,9.47
,7.18
,2.29
,-0.38
,-0.61
,-0.61
,0.15
,2.75
,3.89
,0
,-5.88
,-7.18
,-3.51
,0.08
,0.31
,-2.37
,-4.73
,-4.27
,-2.6
,-1.07
,1.37
,4.05
,4.35
,2.9
,1.68
,0.99
,-0.53
,-2.21
,-2.52
,-1.76
,-0.84
,0.53
,2.37
,3.51
,2.98
,0
,-4.05
,-5.57
,-3.51
,-0.46
,0.76
,0.23
,0.15
,0.15
,-0.38
,0
,2.06
,2.98
,1.15
,-0.76
,-0.99
,-0.38
,0.23
,0.84
,0.08
,-1.22
,-1.07
,0
,0.69
,1.68
,2.9
,3.36
,2.67
,0.99
,-0.53
,-1.6
,-3.66
,-6.11
,-5.27
,-1.91
,-0.92
,-1.45
,-0.31
,2.06
,4.2
,4.73
,3.13
,0.08
,-2.37
,-2.82
,-1.6
,0
,0.08
,-0.76
,-1.83
,-3.21
,-2.98
,0
,3.21
,5.34
,5.11
,1.83
,-2.06
,-4.5
,-4.35
,-2.21
,0.61
,2.37
,1.6
,0.46
,0.46
,0.15
,-1.3
,-2.82
,-2.14
,0.23
,1.6
,2.44
,3.21
,0.69
,-4.27
,-5.73
,-1.68
,3.28
,3.89
,1.68
,0.53
,0.69
,1.37
,0.76
,-1.6
,-2.37
,0.99
,4.73
,5.04
,3.66
,2.37
,1.07
,0.76
,0.53
,-0.76
,-2.37
,-3.13
,-1.98
,1.15
,2.44
,-0.61
,-4.43
,-2.98
,2.06
,5.34
,6.11
,5.88
,4.35
,1.98
,1.91
,3.59
,2.82
,-0.08
,-1.98
,-2.67
,-2.75
,-2.21
,-1.15
,-0.69
,-1.6
,-2.75
,-2.44
,-0.84
,1.53
,3.28
,2.98
,1.76
,0.92
,0.99
,1.07
,1.45
,2.44
,1.53
,-2.14
,-4.96
,-3.89
,0.08
,2.82
,1.68
,-1.45
,-3.82
,-4.58
,-3.51
,-0.38
,2.98
,3.74
,2.37
,1.37
,0.84
,-0.61
,-2.44
,-3.05
,-3.36
,-3.36
,-0.84
,3.05
,3.97
,1.53
,-0.99
,-0.76
,2.29
,3.59
,0.53
,-2.06
,-0.53
,1.98
,2.37
,0.69
,-1.15
,-2.06
,-2.37
,-2.37
,-1.68
,-0.08
,1.15
,0.84
,-0.31
,-0.61
,0.38
,2.21
,2.75
,-0.15
,-4.27
,-4.2
,-0.92
,1.53
,2.52
,2.67
,1.83
,1.45
,1.83
,1.53
,0.38
,-0.76
,-1.76
,-1.53
,0
,0.92
,0.53
,0.08
,0.15
,0.69
,1.68
,3.66
,5.11
,3.36
,-0.76
,-3.66
,-3.28
,-1.53
,-1.15
,-2.06
,-1.83
,-1.53
,-3.05
,-3.44
,-1.15
,0
,-1.15
,-1.91
,-0.61
,1.37
,1.22
,-1.07
,-1.68
,0.31
,1.45
,2.06
,3.97
,4.43
,2.44
,1.15
,1.37
,1.22
,0.23
,-0.99
,-2.29
,-2.44
,-1.6
,-1.3
,-1.37
,-1.91
,-2.6
,-1.76
,0
,0.76
,0.53
,1.45
,4.2
,6.34
,6.18
,3.89
,1.37
,-0.69
,-2.75
,-5.04
,-6.79
,-6.11
,-3.21
,-1.83
,-2.06
,-0.38
,3.05
,5.8
,5.73
,2.9
,-0.23
,-1.45
,-0.38
,2.21
,4.05
,2.98
,-0.53
,-4.5
,-6.79
,-4.58
,1.53
,6.11
,4.96
,1.37
,0.23
,1.3
,1.91
,1.07
,-0.08
,-0.99
,0.23
,3.66
,5.88
,4.58
,0.84
,-2.44
,-3.05
,-1.37
,0.46
,0.92
,-0.53
,-2.52
,-3.21
,-1.76
,1.07
,2.44
,1.07
,0.23
,1.07
,1.15
,0
,-1.15
,-3.44
,-6.11
,-5.34
,-1.91
,0.61
,1.91
,2.98
,3.21
,2.14
,1.37
,1.83
,1.3
,-0.53
,-1.37
,-0.84
,-0.69
,-1.76
,-2.67
,-1.37
,1.83
,5.19
,5.8
,1.98
,-3.28
,-4.96
,-2.82
,-0.31
,1.91
,3.66
,3.97
,3.44
,1.76
,-0.53
,-1.83
,-1.22
,0.38
,1.3
,0
,-2.67
,-3.82
,-2.44
,-0.08
,3.05
,6.34
,6.11
,1.98
,-1.37
,-2.14
,-2.37
,-2.75
,-1.53
,0.31
,1.37
,1.3
,0.08
,-1.15
,-1.45
,-1.91
,-1.53
,1.76
,4.89
,4.12
,1.22
,-0.61
,-1.68
,-2.82
,-1.98
,0.15
,0.84
,0.46
,0.31
,-0.31
,-1.76
,-2.82
,-1.83
,0.46
,0.69
,-1.22
,-0.53
,2.06
,2.29
,-0.08
,-2.14
,-2.44
,-0.69
,1.6
,2.37
,1.83
,1.6
,1.37
,0.76
,0
,-0.46
,0.31
,2.06
,2.14
,1.6
,2.67
,1.15
,-4.73
,-8.17
,-5.88
,-2.6
,-0.23
,2.14
,2.52
,0.38
,-1.6
,-1.76
,-1.07
,-0.92
,0
,1.6
,0.08
,-3.97
,-4.89
,-2.29
,-1.45
,-3.89
,-6.72
,-8.32
,-8.55
,-6.72
,-3.13
,0.08
,0.84
,0.23
,2.52
,6.64
,8.02
,6.56
,5.04
,4.2
,3.89
,5.19
,6.03
,3.97
,1.83
,1.53
,0.99
,-1.76
,-5.57
,-6.34
,-5.42
,-5.34
,-3.13
,1.76
,5.19
,5.88
,4.58
,1.37
,-1.83
,-2.29
,-0.31
,2.6
,5.8
,5.57
,0
,-5.73
,-6.87
,-4.27
,-1.98
,-1.68
,-2.29
,-2.6
,-0.38
,3.74
,5.95
,3.97
,0.15
,-1.83
,-0.92
,-0.08
,-2.21
,-4.58
,-4.2
,-0.92
,2.9
,4.12
,3.21
,1.98
,-1.22
,-4.96
,-4.66
,-1.68
,-1.15
,-2.29
,-1.37
,1.22
,0.84
,-2.52
,-3.66
,-2.06
,-0.69
,0.53
,2.9
,4.89
,4.2
,0.61
,-2.9
,-3.66
,-2.37
,-1.45
,-1.83
,-2.9
,-4.66
,-4.81
,-1.53
,1.83
,2.52
,1.76
,1.3
,0.76
,-0.61
,-1.83
,-2.37
,-1.07
,1.76
,3.28
,3.66
,4.81
,4.05
,-0.46
,-4.66
,-5.5
,-4.73
,-3.28
,-1.83
,-1.6
,-2.6
,-2.98
,-1.22
,1.83
,4.12
,3.59
,-0.46
,-4.27
,-1.98
,4.2
,6.95
,5.11
,2.9
,1.83
,0.99
,0.46
,0.08
,-0.69
,-1.91
,-2.29
,-1.76
,-1.53
,-1.6
,-0.31
,2.06
,3.21
,3.21
,3.82
,3.51
,2.52
,2.9
,2.67
,0.61
,0.61
,3.21
,2.98
,-0.31
,-2.06
,-0.31
,2.52
,3.89
,3.59
,2.6
,1.07
,-0.61
,-1.45
,-1.07
,0.61
,3.44
,5.65
,5.95
,4.73
,2.37
,-0.08
,-0.99
,-0.31
,-0.15
,-1.3
,-2.14
,-2.82
,-3.05
,-1.22
,0.76
,1.07
,1.22
,1.53
,0.69
,-0.15
,0.92
,3.51
,4.43
,2.06
,-0.99
,-2.14
,-1.83
,-1.3
,-0.92
,-1.07
,-0.76
,0.69
,1.07
,-1.22
,-3.97
,-3.66
,-0.99
,0.31
,0.38
,1.22
,2.44
,1.91
,0.69
,2.14
,3.51
,1.15
,-2.67
,-4.5
,-3.74
,-1.6
,0.99
,3.89
,4.89
,3.44
,1.98
,1.07
,-0.31
,-1.45
,-2.21
,-2.6
,-2.06
,-1.45
,-0.99
,0.15
,1.37
,1.83
,2.44
,3.51
,3.51
,2.21
,1.15
,0
,-2.29
,-4.2
,-4.66
,-2.52
,1.83
,4.35
,3.13
,1.45
,1.3
,1.68
,2.75
,4.81
,5.19
,1.83
,-2.44
,-2.98
,-0.92
,-1.37
,-4.27
,-4.58
,-0.08
,4.73
,3.66
,-0.76
,-1.6
,0.69
,2.52
,2.9
,2.14
,0.76
,0.69
,0.61
,-1.6
,-3.66
,-3.13
,-1.68
,0
,1.07
,0.61
,0.92
,1.91
,0.31
,-2.75
,-3.36
,-1.3
,0.92
,1.37
,0.84
,1.53
,1.83
,-0.46
,-3.44
,-4.05
,-1.76
,0.08
,0.31
,0.46
,0
,-0.69
,0
,1.45
,1.6
,0.92
,0.99
,1.07
,0
,-0.61
,0.69
,1.37
,-0.76
,-2.82
,-3.21
,-3.74
,-3.66
,-2.67
,-2.82
,-2.6
,0.23
,4.27
,6.64
,6.41
,4.96
,3.74
,1.37
,-2.44
,-4.81
,-4.35
,-3.28
,-2.14
,-0.99
,-2.06
,-4.81
,-5.5
,-2.44
,2.21
,5.34
,4.81
,1.45
,-1.83
,-3.82
,-3.28
,-0.15
,2.21
,1.76
,1.07
,2.6
,2.75
,-0.99
,-4.27
,-3.89
,-2.44
,-1.15
,0.23
,1.68
,1.6
,0
,0.53
,3.59
,3.44
,-0.53
,-1.91
,1.15
,2.98
,2.21
,2.6
,1.98
,-2.21
,-5.8
,-4.73
,-1.53
,-0.15
,-0.61
,-0.69
,-0.46
,0
,1.91
,3.82
,2.98
,0.76
,-0.69
,-1.53
,-2.21
,-2.75
,-2.29
,-0.76
,0.08
,0.31
,1.68
,2.37
,0.69
,-1.07
,-2.06
,-3.28
,-3.36
,-1.6
,-0.15
,-0.15
,-0.84
,-1.22
,-0.76
,0.92
,3.51
,5.19
,5.8
,5.8
,4.12
,1.6
,0.53
,-0.08
,-1.45
,-2.6
,-2.82
,-2.52
,-1.37
,-0.38
,-1.83
,-4.66
,-4.05
,0.38
,3.51
,3.74
,4.12
,5.04
,4.05
,0.53
,-3.21
,-3.28
,-0.53
,0.46
,-0.31
,-0.69
,-0.92
,-2.06
,-1.3
,0.84
,0.69
,-0.61
,-0.46
,0.84
,1.68
,1.37
,-0.15
,-2.29
,-3.66
,-2.67
,0
,0.69
,-1.76
,-3.82
,-2.52
,1.45
,4.27
,3.44
,1.6
,1.37
,2.06
,1.53
,0.23
,0.53
,-0.76
,-4.89
,-5.88
,-2.44
,0.99
,2.06
,0.84
,0.15
,1.68
,2.14
,-0.15
,-2.44
,-1.53
,2.29
,5.5
,5.8
,3.66
,-0.31
,-3.51
,-3.89
,-2.52
,-1.07
,-0.08
,1.22
,2.67
,2.21
,0.99
,2.06
,5.42
,9.01
,7.63
,-2.21
,-12.37
,-11.22
,-1.22
,5.65
,4.89
,-0.08
,-5.65
,-9.16
,-9.01
,-7.56
,-7.94
,-8.63
,-7.56
,-6.03
,-5.19
,-4.35
,-3.21
,-3.28
,-3.21
,0.53
,5.42
,7.1
,6.34
,5.5
,5.8
,7.33
,8.24
,7.94
,6.56
,3.82
,1.45
,0.46
,-0.38
,-1.37
,-0.99
,-1.3
,-3.21
,-3.13
,0.23
,3.51
,3.97
,2.82
,1.45
,0.15
,-0.61
,-0.31
,1.37
,1.07
,-2.52
,-5.5
,-5.19
,-3.21
,-1.53
,-0.31
,0.61
,1.68
,3.59
,5.27
,4.05
,1.22
,0.46
,0
,-1.15
,0
,1.6
,-1.53
,-7.25
,-9.24
,-4.66
,2.06
,4.89
,2.82
,0
,-0.76
,-1.07
,-2.14
,-2.21
,0.99
,4.81
,4.2
,-0.38
,-4.66
,-5.42
,-2.75
,0.38
,1.45
,0.53
,0.15
,0.69
,0.38
,-0.84
,-1.15
,-0.31
,-0.08
,-0.76
,-1.76
,-1.83
,0.76
,4.5
,4.89
,1.6
,-1.53
,-2.29
,-1.15
,-0.38
,-2.06
,-3.74
,-2.37
,0.08
,0.69
,-0.38
,-0.61
,0
,-0.99
,-3.44
,-4.5
,-2.37
,0.92
,2.21
,2.67
,3.66
,3.13
,0.76
,-1.83
,-3.82
,-4.35
,-3.59
,-1.98
,0.08
,0.92
,0.23
,-1.37
,-4.2
,-7.02
,-6.64
,-1.6
,3.66
,3.59
,-0.15
,-2.82
,-2.75
,-1.68
,-0.69
,-0.08
,0.76
,1.6
,0.61
,-1.3
,-1.45
,-0.38
,-0.31
,-0.61
,0
,0.61
,1.45
,3.66
,5.27
,3.89
,-0.23
,-3.89
,-3.36
,-0.38
,0.69
,1.37
,3.51
,3.97
,2.06
,0.61
,1.15
,2.6
,2.75
,1.22
,0.38
,1.6
,3.05
,2.9
,2.67
,2.82
,0.92
,-2.67
,-4.5
,-3.82
,-2.67
,-1.91
,-0.15
,1.76
,1.76
,-0.08
,-0.38
,2.06
,3.97
,2.75
,0.69
,0
,0.61
,1.6
,2.52
,1.98
,-0.23
,-2.06
,-1.98
,-0.84
,1.37
,3.97
,3.89
,0.38
,-4.2
,-7.56
,-7.79
,-4.66
,-0.46
,1.83
,1.53
,0.69
,1.98
,3.97
,3.89
,2.06
,1.15
,1.76
,1.98
,1.45
,1.68
,1.76
,0
,-3.28
,-6.03
,-6.56
,-5.27
,-2.75
,0.53
,2.21
,0.61
,-1.6
,-2.06
,-0.61
,1.68
,3.21
,2.9
,1.3
,0.08
,0
,0
,-0.69
,-1.98
,-3.51
,-4.66
,-4.43
,-3.05
,0.23
,4.43
,5.19
,1.98
,-1.3
,-2.44
,-1.15
,0.76
,1.6
,1.6
,2.21
,3.13
,2.82
,1.3
,0.53
,0.53
,-1.45
,-5.19
,-5.88
,-2.98
,-1.91
,-2.06
,1.98
,7.25
,6.26
,0.23
,-3.51
,-2.98
,-0.92
,0
,0.15
,1.76
,4.05
,3.97
,1.98
,0
,-1.91
,-3.05
,-2.06
,-0.31
,0.69
,0.99
,0.31
,-0.08
,1.53
,2.44
,1.07
,0.31
,2.06
,3.51
,0.38
,-5.5
,-6.95
,-1.91
,3.51
,4.81
,3.13
,0.53
,-0.69
,-0.46
,-1.83
,-4.96
,-5.42
,-2.6
,0
,1.22
,1.3
,0.23
,-0.69
,0.38
,1.98
,0.99
,-0.99
,-0.61
,2.06
,3.82
,2.21
,-1.15
,-3.97
,-5.27
,-5.19
,-3.36
,-0.08
,2.44
,2.29
,0.61
,0.23
,1.3
,2.14
,2.06
,2.14
,2.75
,2.37
,0
,-3.44
,-4.66
,-2.29
,0.23
,-0.08
,-1.76
,-2.14
,-1.3
,-0.08
,1.37
,2.82
,2.67
,1.45
,0.61
,-0.31
,-1.83
,-2.52
,-0.84
,2.06
,3.44
,2.21
,0.31
,-0.99
,-1.6
,-1.37
,-1.53
,-2.75
,-3.89
,-2.37
,3.74
,8.32
,6.18
,2.06
,0.46
,-0.15
,-0.84
,-0.84
,-0.61
,-1.07
,-1.91
,-2.37
,-2.14
,-2.37
,-4.43
,-6.56
,-4.81
,0.46
,4.96
,6.26
,4.27
,0.84
,-1.83
,-2.6
,-2.29
,-2.67
,-3.51
,-1.98
,1.07
,2.44
,1.6
,0.69
,0.92
,1.83
,2.06
,0.61
,-1.45
,-2.67
,-3.21
,-2.82
,-1.45
,-1.07
,-2.37
,-3.82
,-3.44
,-0.53
,1.91
,2.37
,3.28
,5.34
,5.73
,3.44
,-0.08
,-2.67
,-3.51
,-3.82
,-4.12
,-3.97
,-3.36
,-2.52
,-0.23
,2.9
,4.66
,3.36
,0.76
,-0.53
,0.23
,1.91
,2.44
,1.22
,0.08
,0.08
,-0.92
,-3.51
,-4.5
,-3.36
,-1.6
,0.53
,2.6
,3.66
,3.59
,2.37
,-0.15
,-2.37
,-2.14
,-1.22
,-1.98
,-3.82
,-4.35
,-3.36
,-1.68
,0.99
,3.59
,2.82
,0.15
,0
,2.14
,3.36
,3.59
,3.97
,2.9
,-1.6
,-6.49
,-6.26
,-2.67
,-0.84
,-0.08
,0.53
,0
,-0.08
,2.06
,3.74
,2.9
,2.14
,2.06
,0.69
,-0.84
,-1.22
,-1.91
,-2.6
,-1.07
,0.38
,-0.23
,-0.46
,1.45
,2.67
,0.84
,-1.91
,-2.29
,-0.31
,2.21
,3.97
,3.97
,1.98
,-1.07
,-3.28
,-3.13
,-2.67
,-5.27
,-8.24
,-6.95
,-3.82
,-4.5
,-8.24
,-10.69
,-9.24
,-4.89
,-0.76
,1.53
,3.59
,6.56
,9.01
,8.63
,6.18
,5.19
,6.11
,4.89
,1.15
,-0.23
,1.3
,1.98
,0.99
,0.92
,2.14
,2.44
,1.37
,0.84
,1.3
,1.6
,1.22
,0.76
,0.31
,-0.38
,-0.92
,-0.08
,1.76
,2.21
,-0.61
,-3.97
,-4.89
,-3.66
,-1.53
,-0.31
,0.31
,1.6
,1.6
,0
,-0.69
,-0.38
,-0.53
,-0.84
,-0.99
,-0.61
,0.84
,2.67
,2.14
,-0.76
,-2.67
,-2.06
,-0.61
,-0.08
,0
,1.07
,2.44
,0.69
,-3.82
,-4.89
,-0.76
,2.06
,0.76
,-1.91
,-3.21
,-2.21
,-0.61
,-0.31
,-0.31
,0.15
,0.15
,-0.15
,0
,0.15
,-0.69
,-1.76
,-0.84
,1.83
,3.59
,2.82
,0.08
,-3.51
,-7.02
,-8.09
,-4.89
,-0.23
,1.98
,2.06
,1.45
,0.76
,0.46
,0.76
,1.07
,-0.08
,-1.53
,-0.92
,0.31
,-0.84
,-4.12
,-5.73
,-5.11
,-3.82
,-2.9
,-2.29
,-0.99
,1.37
,3.66
,3.59
,1.22
,0.15
,1.15
,0.61
,-1.68
,-2.9
,-2.44
,-2.06
,-2.29
,-2.44
,-2.14
,-1.07
,-0.08
,-0.15
,-0.53
,1.15
,4.2
,4.58
,2.67
,1.22
,-0.61
,-3.97
,-6.64
,-6.03
,-2.98
,-0.99
,-0.84
,-0.08
,3.97
,8.47
,8.4
,5.27
,3.82
,4.05
,3.74
,1.91
,-0.08
,-0.08
,0.31
,-1.68
,-4.89
,-6.03
,-4.66
,-0.99
,4.43
,8.7
,9.62
,8.4
,5.95
,3.05
,1.91
,1.91
,1.91
,3.51
,4.89
,2.21
,-2.52
,-4.5
,-3.82
,-3.21
,-2.82
,-2.37
,-1.15
,0.76
,1.83
,2.75
,5.34
,6.95
,5.57
,2.52
,-1.15
,-4.43
,-4.81
,-2.14
,-0.15
,-0.99
,-1.83
,-2.06
,-2.9
,-2.9
,-0.92
,1.15
,1.37
,-0.15
,-1.6
,-0.76
,0.76
,0.61
,-0.61
,-0.84
,0.69
,2.52
,4.05
,4.27
,1.76
,-0.46
,0
,0.76
,-0.61
,-3.13
,-3.97
,-3.44
,-3.36
,-3.05
,-1.6
,-0.76
,-0.46
,0.61
,2.14
,3.51
,5.11
,5.42
,2.6
,-1.3
,-3.05
,-3.21
,-2.14
,0.84
,3.28
,2.14
,-1.37
,-4.2
,-4.2
,-1.91
,0.99
,2.6
,0.92
,-1.68
,-0.15
,3.66
,3.74
,1.07
,-0.92
,-2.21
,-2.06
,-0.92
,-0.84
,-1.37
,-0.31
,1.22
,1.15
,-0.31
,-2.21
,-3.51
,-3.21
,-1.15
,1.07
,1.45
,0.76
,0.84
,1.68
,2.06
,2.29
,2.98
,2.75
,0.15
,-3.89
,-7.4
,-7.86
,-4.96
,-1.53
,0.31
,0.76
,0
,-1.15
,-0.61
,1.91
,3.82
,2.67
,0.99
,1.45
,2.21
,0.38
,-3.21
,-5.11
,-4.35
,-4.12
,-4.73
,-3.66
,-0.61
,1.15
,1.22
,2.37
,3.59
,2.75
,1.53
,1.68
