1,-87.02
2,-87.4
3,-87.56
4,-87.33
5,-87.02
6,-87.86
7,-89.69
8,-91.37
9,-92.29
10,-91.37
11,-89.24
12,-89.08
13,-91.22
14,-93.21
15,-95.34
16,-99.01
17,-101.98
18,-102.82
19,-102.75
20,-103.13
21,-104.05
22,-104.96
23,-105.65
24,-106.34
25,-107.79
26,-109.24
27,-109.39
28,-108.47
29,-108.02
30,-108.4
31,-109.31
32,-110.53
33,-111.22
34,-110.99
35,-110
36,-108.78
37,-108.02
38,-108.09
39,-108.32
40,-108.55
41,-110.31
42,-113.28
43,-115.5
44,-115.8
45,-114.96
46,-114.35
47,-115.04
48,-116.87
49,-118.7
50,-119.85
51,-120.46
52,-120.53
53,-119.47
54,-118.09
55,-117.63
56,-118.32
57,-119.54
58,-120.15
59,-119.31
60,-117.25
61,-115.5
62,-115.5
63,-116.26
64,-116.87
65,-117.63
66,-118.32
67,-118.4
68,-117.94
69,-117.33
70,-116.56
71,-115.73
72,-115.57
73,-117.02
74,-119.69
75,-121.98
76,-121.98
77,-120.23
78,-118.85
79,-119.08
80,-119.62
81,-119.62
82,-120.15
83,-121.83
84,-123.66
85,-123.89
86,-122.14
87,-120.08
88,-120.46
89,-123.59
90,-126.03
91,-124.73
92,-121.76
93,-119.54
94,-118.24
95,-116.87
96,-115.95
97,-116.34
98,-117.48
99,-118.4
100,-119.54
101,-120.61
102,-120.38
103,-119.16
104,-118.4
105,-117.71
106,-116.49
107,-115.73
108,-116.26
109,-117.94
110,-119.47
111,-119.77
112,-120.38
113,-121.68
114,-122.21
115,-122.75
116,-123.97
117,-124.66
118,-124.27
119,-123.82
120,-123.13
121,-122.14
122,-121.6
123,-121.91
124,-122.52
125,-123.44
126,-124.66
127,-125.42
128,-124.66
129,-122.37
130,-120.31
131,-120.38
132,-121.83
133,-122.67
134,-121.83
135,-119.92
136,-118.32
137,-117.56
138,-117.18
139,-117.86
140,-119.39
141,-120.61
142,-121.22
143,-120.69
144,-119.24
145,-118.85
146,-119.77
147,-119.62
148,-117.94
149,-118.02
150,-120.31
151,-121.98
152,-121.98
153,-121.07
154,-119.01
155,-116.64
156,-115.95
157,-117.4
158,-119.31
159,-119.85
160,-118.93
161,-117.48
162,-116.41
163,-116.11
164,-115.95
165,-115.42
166,-115.19
167,-115.57
168,-116.03
169,-117.02
170,-118.4
171,-119.31
172,-120
173,-122.14
174,-125.65
175,-127.48
176,-126.26
177,-123.51
178,-120.76
179,-119.01
180,-118.55
181,-119.24
182,-121.15
183,-123.05
184,-123.74
185,-123.28
186,-121.68
187,-119.62
188,-117.94
189,-117.86
190,-120.15
191,-123.21
192,-124.12
193,-122.29
194,-120.38
195,-119.01
196,-117.86
197,-118.02
198,-119.16
199,-120.84
200,-123.13
201,-124.58
202,-124.12
203,-122.6
204,-122.06
205,-122.82
206,-123.59
207,-123.36
208,-122.67
209,-121.6
210,-118.78
211,-115.5
212,-114.12
213,-114.05
214,-114.2
215,-114.58
216,-115.5
217,-116.41
218,-115.88
219,-113.89
220,-112.75
221,-111.98
222,-110.53
223,-109.69
224,-110.15
225,-111.37
226,-112.67
227,-111.98
228,-108.78
229,-106.79
230,-107.86
231,-109.62
232,-110.31
233,-110.53
234,-110.76
235,-110.53
236,-109.39
237,-107.02
238,-104.5
239,-103.36
240,-103.97
241,-104.96
242,-105.65
243,-106.03
244,-105.73
245,-105.19
246,-105.42
247,-105.73
248,-105.19
249,-105.04
250,-106.11
251,-107.18
252,-107.02
253,-106.26
254,-105.27
255,-104.27
256,-103.28
257,-102.52
258,-102.75
259,-103.44
260,-103.51
261,-103.21
262,-102.9
263,-102.98
264,-103.82
265,-105.5
266,-107.4
267,-108.32
268,-108.02
269,-107.48
270,-107.1
271,-106.56
272,-105.88
273,-105.19
274,-105.42
275,-106.18
276,-105.8
277,-103.74
278,-101.6
279,-100.15
280,-98.78
281,-98.7
282,-101.22
283,-104.2
284,-105.27
285,-105.34
286,-105.04
287,-103.89
288,-103.36
289,-104.81
290,-107.56
291,-110.23
292,-111.3
293,-109.47
294,-107.18
295,-107.02
296,-107.63
297,-107.63
298,-107.33
299,-106.87
300,-106.34
301,-105.5
302,-104.05
303,-101.76
304,-98.78
305,-96.34
306,-96.11
307,-97.18
308,-97.79
309,-97.71
310,-97.1
311,-96.41
312,-95.88
313,-95.5
314,-95.34
315,-96.11
316,-97.18
317,-97.79
318,-98.09
319,-97.48
320,-96.11
321,-95.42
322,-96.26
323,-97.56
324,-98.55
325,-98.7
326,-97.79
327,-96.03
328,-94.96
329,-95.27
330,-96.03
331,-96.41
332,-96.72
333,-96.87
334,-96.56
335,-95.27
336,-93.36
337,-92.06
338,-91.37
339,-90.76
340,-90.38
341,-90.53
342,-91.07
343,-90.84
344,-89.62
345,-89.31
346,-90
347,-90.31
348,-90.08
349,-90.76
350,-92.82
351,-95.27
352,-96.49
353,-95.65
354,-93.82
355,-92.37
356,-92.67
357,-94.73
358,-96.56
359,-96.49
360,-94.43
361,-91.3
362,-89.31
363,-89.62
364,-91.15
365,-92.52
366,-93.51
367,-93.13
368,-91.45
369,-89.54
370,-88.24
371,-88.32
372,-89.31
373,-89.62
374,-89.62
375,-90.23
376,-90.15
377,-88.55
378,-87.02
379,-86.26
380,-85.34
381,-83.89
382,-83.05
383,-83.36
384,-83.97
385,-83.74
386,-82.67
387,-82.14
388,-83.13
389,-84.73
390,-85.88
391,-86.18
392,-86.79
393,-88.09
394,-88.32
395,-87.1
396,-85.88
397,-85.95
398,-87.02
399,-88.09
400,-88.78
401,-88.93
402,-88.24
403,-87.48
404,-88.09
405,-89.62
406,-91.07
407,-93.13
408,-95.95
409,-97.71
410,-97.4
411,-95.19
412,-92.98
413,-93.21
414,-95.95
415,-98.7
416,-99.54
417,-98.7
418,-97.79
419,-96.34
420,-93.74
421,-91.45
422,-91.22
423,-92.98
424,-94.96
425,-95.42
426,-94.05
427,-92.75
428,-92.37
429,-91.98
430,-91.53
431,-92.14
432,-93.44
433,-94.58
434,-94.81
435,-92.98
436,-90.23
437,-89.24
438,-89.77
439,-90.61
440,-92.67
441,-95.19
442,-96.64
443,-97.4
444,-98.4
445,-98.78
446,-98.02
447,-97.1
448,-96.87
449,-97.79
450,-99.01
451,-99.31
452,-98.63
453,-98.24
454,-98.7
455,-99.01
456,-98.93
457,-99.39
458,-100.84
459,-102.14
460,-102.37
461,-101.07
462,-99.39
463,-99.31
464,-99.92
465,-99.16
466,-97.94
467,-97.86
468,-98.32
469,-99.08
470,-99.85
471,-100.08
472,-99.54
473,-99.62
474,-100.61
475,-100.84
476,-100.46
477,-100.23
478,-99.69
479,-98.7
480,-98.09
481,-99.01
482,-101.07
483,-102.52
484,-102.37
485,-101.45
486,-100.61
487,-99.08
488,-97.56
489,-97.56
490,-98.85
491,-100.15
492,-100.46
493,-99.39
494,-97.18
495,-95.65
496,-96.03
497,-96.79
498,-97.63
499,-99.92
500,-102.44
501,-103.74
502,-104.35
503,-104.35
504,-103.89
505,-103.44
506,-103.13
507,-103.13
508,-103.66
509,-104.12
510,-104.27
511,-104.27
512,-103.59
513,-102.67
514,-102.14
515,-101.76
516,-101.68
517,-101.83
518,-101.37
519,-100.08
520,-98.7
521,-97.94
522,-98.4
523,-99.69
524,-101.3
525,-103.05
526,-103.66
527,-102.37
528,-101.07
529,-101.91
530,-103.36
531,-104.05
532,-105.19
533,-108.17
534,-110.61
535,-110.23
536,-108.17
537,-107.1
538,-107.02
539,-107.25
540,-108.24
541,-110
542,-110.76
543,-109.31
544,-107.79
545,-108.4
546,-110.15
547,-111.22
548,-111.98
549,-113.59
550,-115.88
551,-117.4
552,-117.4
553,-116.26
554,-115.42
555,-115.88
556,-117.02
557,-118.02
558,-118.09
559,-117.1
560,-116.03
561,-115.34
562,-114.81
563,-114.81
564,-115.11
565,-114.96
566,-114.43
567,-113.89
568,-113.13
569,-112.37
570,-112.21
571,-111.83
572,-111.07
573,-110.08
574,-109.62
575,-110.38
576,-111.15
577,-109.31
578,-105.34
579,-102.98
580,-103.74
581,-106.03
582,-108.17
583,-108.93
584,-108.02
585,-105.95
586,-103.97
587,-103.66
588,-104.58
589,-105.34
590,-106.03
591,-107.02
592,-107.86
593,-108.17
594,-108.09
595,-107.48
596,-106.49
597,-105.5
598,-104.81
599,-103.89
600,-103.13
601,-101.91
602,-98.85
603,-95.04
604,-92.52
605,-91.6
606,-91.98
607,-93.36
608,-94.66
609,-94.35
610,-92.21
611,-90.61
612,-91.3
613,-92.98
614,-93.97
615,-93.89
616,-92.6
617,-90.31
618,-88.63
619,-87.94
620,-86.95
621,-85.19
622,-84.43
623,-85.57
624,-87.02
625,-87.18
626,-86.11
627,-85.5
628,-85.5
629,-85.42
630,-85.57
631,-86.11
632,-86.41
633,-85.95
634,-84.96
635,-83.66
636,-82.6
637,-82.6
638,-83.97
639,-86.11
640,-87.4
641,-87.71
642,-87.79
643,-87.94
644,-87.56
645,-86.87
646,-86.79
647,-87.25
648,-88.02
649,-89.62
650,-91.07
651,-91.45
652,-91.6
653,-92.6
654,-93.97
655,-93.97
656,-93.13
657,-93.13
658,-93.36
659,-92.52
660,-90.46
661,-87.94
662,-85.27
663,-83.28
664,-83.05
665,-83.97
666,-84.66
667,-84.58
668,-83.97
669,-82.67
670,-80.38
671,-78.32
672,-77.02
673,-76.72
674,-78.32
675,-80.84
676,-81.45
677,-79.92
678,-78.85
679,-79.54
680,-81.07
681,-82.21
682,-82.75
683,-82.14
684,-80.84
685,-79.47
686,-77.25
687,-74.89
688,-74.35
689,-74.89
690,-74.27
691,-73.44
692,-73.66
693,-73.66
694,-72.14
695,-70.53
696,-70.23
697,-71.22
698,-73.05
699,-74.81
700,-74.96
701,-73.28
702,-72.37
703,-73.51
704,-74.05
705,-72.52
706,-71.6
707,-72.9
708,-74.81
709,-75.5
710,-73.74
711,-70.15
712,-67.02
713,-65.34
714,-64.73
715,-64.2
716,-63.36
717,-62.6
718,-62.37
719,-62.21
720,-61.07
721,-59.01
722,-57.33
723,-56.49
724,-55.95
725,-55.19
726,-54.2
727,-52.75
728,-50.61
729,-48.78
730,-47.94
731,-47.71
732,-47.25
733,-46.95
734,-47.48
735,-47.63
736,-46.72
737,-45.95
738,-45.27
739,-44.27
740,-43.36
741,-42.52
742,-41.37
743,-40.23
744,-38.85
745,-37.48
746,-36.95
747,-37.48
748,-38.55
749,-39.62
750,-40.31
751,-40
752,-39.31
753,-39.47
754,-40.61
755,-41.6
756,-41.91
757,-42.44
758,-43.21
759,-43.74
760,-44.2
761,-43.82
762,-41.83
763,-39.08
764,-36.72
765,-35.19
766,-33.82
767,-31.91
768,-29.47
769,-27.18
770,-25.04
771,-23.21
772,-22.06
773,-21.91
774,-21.98
775,-21.07
776,-18.24
777,-14.2
778,-11.15
779,-10.23
780,-10.84
781,-12.52
782,-14.05
783,-13.82
784,-12.44
785,-11.53
786,-11.53
787,-11.22
788,-10.69
789,-11.83
790,-15.19
791,-17.4
792,-15.57
793,-11.76
794,-9.69
795,-9.54
796,-9.08
797,-7.63
798,-6.64
799,-6.56
800,-6.11
801,-4.81
802,-3.13
803,-1.22
804,0.15
805,0.08
806,-1.45
807,-3.44
808,-4.2
809,-2.9
810,-0.92
811,0.46
812,2.44
813,4.27
814,3.59
815,1.07
816,-0.15
817,0.31
818,1.45
819,3.51
820,7.1
821,10.31
822,10.99
823,9.69
824,8.02
825,7.18
826,8.55
827,11.37
828,13.74
829,14.96
830,15.27
831,15.11
832,14.89
833,14.73
834,14.89
835,15.19
836,16.03
837,18.02
838,19.77
839,19.92
840,18.32
841,16.56
842,16.34
843,17.56
844,19.01
845,19.85
846,19.85
847,19.47
848,19.31
849,20.38
850,22.82
851,25.34
852,27.18
853,28.85
854,30.84
855,31.91
856,32.06
857,32.21
858,31.68
859,30.46
860,30.92
861,33.74
862,36.41
863,37.4
864,36.41
865,34.81
866,34.35
867,35.57
868,37.63
869,39.47
870,41.07
871,42.9
872,44.27
873,44.35
874,43.21
875,41.6
876,40.61
877,40.46
878,41.07
879,42.14
880,43.13
881,42.67
882,40.31
883,37.48
884,35.8
885,35.04
886,34.89
887,35.65
888,37.02
889,37.48
890,36.03
891,33.82
892,32.67
893,32.82
894,33.59
895,34.05
896,33.36
897,32.67
898,33.66
899,35.57
900,36.49
901,37.18
902,39.08
903,42.29
904,44.73
905,44.81
906,43.59
907,42.67
908,42.6
909,42.9
910,42.82
911,43.36
912,45.27
913,47.02
914,47.48
915,46.41
916,44.73
917,44.58
918,46.03
919,47.02
920,46.41
921,44.89
922,43.82
923,43.74
924,44.73
925,45.95
926,46.87
927,48.02
928,49.01
929,49.08
930,48.7
931,47.94
932,46.49
933,44.96
934,44.43
935,45.19
936,46.49
937,47.71
938,48.93
939,49.85
940,49.39
941,47.48
942,45.19
943,44.05
944,44.66
945,45.88
946,46.34
947,46.34
948,45.8
949,43.82
950,41.37
951,40.61
952,41.68
953,42.75
954,43.13
955,43.82
956,44.43
957,43.66
958,42.21
959,41.53
960,41.91
961,42.44
962,42.75
963,43.51
964,43.89
965,42.75
966,40.76
967,39.62
968,40.38
969,41.98
970,42.6
971,42.21
972,41.68
973,41.15
974,40.61
975,41.07
976,42.44
977,44.35
978,46.95
979,49.16
980,49.24
981,46.79
982,43.36
983,41.68
984,42.9
985,44.96
986,46.49
987,47.33
988,46.87
989,45.65
990,44.35
991,43.74
992,44.89
993,47.1
994,48.85
995,50.23
996,51.37
997,51.98
998,51.6
999,50.69
1000,50.76
1001,52.6
1002,54.12
1003,54.81
1004,55.27
1005,54.96
1006,53.74
1007,52.6
1008,51.22
1009,49.69
1010,49.62
1011,51.6
1012,53.82
1013,54.89
1014,54.66
1015,53.36
1016,51.6
1017,50.46
1018,50.15
1019,50.61
1020,50.84
1021,49.69
1022,48.09
1023,47.02
1024,46.18
1025,45.65
1026,45.42
1027,45.5
1028,46.41
1029,48.32
1030,48.85
1031,46.87
1032,44.58
1033,43.82
1034,44.05
1035,44.66
1036,45.34
1037,45.65
1038,45.19
1039,43.59
1040,41.3
1041,40.46
1042,41.6
1043,42.98
1044,43.82
1045,44.58
1046,45.11
1047,44.73
1048,43.89
1049,43.44
1050,42.75
1051,41.53
1052,42.14
1053,45.11
1054,47.56
1055,47.79
1056,46.34
1057,44.73
1058,44.66
1059,45.8
1060,46.41
1061,46.41
1062,46.49
1063,46.79
1064,47.33
1065,47.1
1066,45.65
1067,44.66
1068,45.19
1069,46.87
1070,48.7
1071,49.62
1072,49.54
1073,48.4
1074,46.64
1075,45.5
1076,45.5
1077,46.49
1078,48.09
1079,49.31
1080,49.08
1081,47.94
1082,47.02
1083,46.11
1084,45.42
1085,45.42
1086,46.41
1087,47.56
1088,48.02
1089,47.71
1090,46.49
1091,45.04
1092,44.73
1093,44.89
1094,44.73
1095,45.27
1096,47.02
1097,47.79
1098,46.87
1099,45.65
1100,45.73
1101,46.64
1102,47.79
1103,49.08
1104,49.92
1105,50.38
1106,50.46
1107,49.85
1108,49.08
1109,48.93
1110,50.23
1111,52.06
1112,52.98
1113,53.66
1114,54.81
1115,55.19
1116,54.73
1117,54.81
1118,55.8
1119,56.79
1120,56.95
1121,55.8
1122,54.05
1123,52.6
1124,50.99
1125,49.69
1126,50.46
1127,53.44
1128,56.41
1129,57.63
1130,56.95
1131,54.89
1132,52.44
1133,51.07
1134,51.83
1135,54.81
1136,58.32
1137,60.61
1138,61.37
1139,61.83
1140,62.06
1141,61.3
1142,60.08
1143,60.53
1144,62.37
1145,63.51
1146,63.74
1147,63.51
1148,62.44
1149,60.46
1150,59.24
1151,59.69
1152,60.76
1153,60.69
1154,59.47
1155,58.78
1156,58.63
1157,57.71
1158,56.56
1159,56.26
1160,56.49
1161,57.1
1162,57.63
1163,57.48
1164,57.48
1165,57.33
1166,55.8
1167,54.5
1168,55.11
1169,56.26
1170,56.79
1171,57.4
1172,57.25
1173,55.42
1174,53.13
1175,52.06
1176,52.14
1177,52.37
1178,52.67
1179,53.74
1180,55.04
1181,54.96
1182,53.36
1183,52.67
1184,53.59
1185,54.96
1186,56.26
1187,57.1
1188,57.71
1189,58.4
1190,58.24
1191,57.33
1192,56.79
1193,57.63
1194,60.15
1195,64.35
1196,68.02
1197,69.54
1198,69.62
1199,69.62
1200,70.08
1201,71.76
1202,73.89
1203,75.88
1204,77.4
1205,78.63
1206,79.24
1207,79.69
1208,80.46
1209,81.3
1210,81.45
1211,80.38
1212,78.7
1213,77.63
1214,77.18
1215,76.41
1216,74.73
1217,72.75
1218,71.98
1219,72.29
1220,72.29
1221,71.91
1222,71.07
1223,69.54
1224,68.09
1225,67.71
1226,67.86
1227,68.93
1228,71.07
1229,72.6
1230,72.82
1231,72.9
1232,73.05
1233,72.98
1234,73.51
1235,74.81
1236,76.18
1237,76.49
1238,75.34
1239,73.89
1240,73.44
1241,72.6
1242,71.07
1243,70.08
1244,70.31
1245,71.68
1246,72.29
1247,70.84
1248,68.32
1249,66.49
1250,65.11
1251,63.66
1252,63.59
1253,64.58
1254,64.81
1255,63.21
1256,60.69
1257,58.93
1258,58.85
1259,60.38
1260,62.67
1261,64.12
1262,64.2
1263,63.66
1264,62.82
1265,61.53
1266,60.38
1267,60.23
1268,61.83
1269,65.04
1270,67.63
1271,68.09
1272,68.32
1273,69.62
1274,70.61
1275,71.37
1276,72.98
1277,75.04
1278,76.95
1279,78.55
1280,79.77
1281,80.69
1282,81.91
1283,83.13
1284,83.74
1285,83.13
1286,82.21
1287,82.67
1288,84.43
1289,85.57
1290,85.57
1291,84.73
1292,84.2
1293,84.96
1294,86.41
1295,86.72
1296,85.42
1297,83.82
1298,82.67
1299,81.98
1300,81.76
1301,81.6
1302,81.3
1303,81.22
1304,80.92
1305,79.77
1306,77.63
1307,75.34
1308,74.43
1309,74.58
1310,75.11
1311,76.03
1312,76.56
1313,76.34
1314,75.88
1315,74.96
1316,73.82
1317,74.2
1318,76.49
1319,78.55
1320,78.47
1321,76.56
1322,74.58
1323,73.74
1324,73.13
1325,71.53
1326,70
1327,69.08
1328,68.85
1329,69.39
1330,69.69
1331,68.93
1332,68.4
1333,68.85
1334,70.15
1335,71.91
1336,73.89
1337,74.66
1338,74.58
1339,74.66
1340,73.74
1341,71.53
1342,70.92
1343,72.21
1344,73.51
1345,74.27
1346,75.04
1347,74.66
1348,72.9
1349,71.3
1350,70.46
1351,70.38
1352,71.37
1353,72.67
1354,72.98
1355,72.75
1356,72.67
1357,73.05
1358,74.12
1359,74.81
1360,74.96
1361,75.5
1362,75.65
1363,75.11
1364,75.57
1365,76.34
1366,76.11
1367,75.42
1368,75.27
1369,76.18
1370,77.86
1371,79.16
1372,79.24
1373,78.4
1374,77.25
1375,76.56
1376,77.25
1377,78.47
1378,78.7
1379,77.71
1380,76.56
1381,75.19
1382,73.05
1383,70.76
1384,70.08
1385,71.83
1386,73.59
1387,73.05
1388,71.91
1389,71.91
1390,70.99
1391,67.94
1392,64.89
1393,63.51
1394,63.59
1395,63.74
1396,62.82
1397,61.15
1398,58.78
1399,55.73
1400,53.51
1401,53.82
1402,55.57
1403,56.03
1404,55.04
1405,53.89
1406,52.9
1407,51.83
1408,51.07
1409,50.76
1410,50.69
1411,50.92
1412,52.29
1413,54.89
1414,56.11
1415,54.73
1416,53.51
1417,54.35
1418,56.41
1419,58.78
1420,60.23
1421,60.23
1422,60.38
1423,61.15
1424,61.76
1425,61.53
1426,61.68
1427,63.59
1428,66.26
1429,68.02
1430,68.7
1431,68.02
1432,65.95
1433,64.12
1434,63.66
1435,64.05
1436,64.12
1437,63.74
1438,63.21
1439,62.6
1440,61.3
1441,60
1442,59.62
1443,60.84
1444,62.9
1445,64.2
1446,63.66
1447,62.67
1448,62.44
1449,62.6
1450,63.21
1451,64.05
1452,63.74
1453,62.44
1454,61.53
1455,60.84
1456,59.54
1457,57.86
1458,56.79
1459,56.79
1460,56.95
1461,58.09
1462,60.76
1463,62.6
1464,61.83
1465,60
1466,59.62
1467,60.46
1468,61.45
1469,61.68
1470,60.46
1471,58.85
1472,57.71
1473,55.34
1474,52.37
1475,51.22
1476,52.06
1477,52.98
1478,53.28
1479,53.28
1480,51.98
1481,50.38
1482,50.15
1483,49.92
1484,48.93
1485,48.55
1486,49.31
1487,50.76
1488,52.06
1489,51.98
1490,50.53
1491,49.39
1492,49.92
1493,51.07
1494,51.3
1495,50.46
1496,49.39
1497,48.7
1498,48.09
1499,47.48
1500,47.86
1501,50.31
1502,52.82
1503,52.67
1504,50.46
1505,49.47
1506,49.24
1507,47.48
1508,45.34
1509,45.5
1510,47.1
1511,47.63
1512,46.87
1513,46.26
1514,46.41
1515,46.79
1516,47.02
1517,46.87
1518,46.64
1519,46.64
1520,46.03
1521,45.04
1522,45.04
1523,45.8
1524,46.11
1525,45.27
1526,44.05
1527,43.21
1528,42.98
1529,44.05
1530,44.27
1531,41.6
1532,37.56
1533,35.27
1534,35.11
1535,35.73
1536,36.11
1537,36.34
1538,36.49
1539,36.03
1540,34.35
1541,32.21
1542,31.68
1543,33.05
1544,34.5
1545,34.73
1546,33.82
1547,32.67
1548,31.15
1549,29.08
1550,27.94
1551,29.31
1552,31.3
1553,32.06
1554,31.6
1555,30.08
1556,28.47
1557,27.86
1558,28.55
1559,29.85
1560,31.45
1561,33.59
1562,35.88
1563,36.49
1564,34.89
1565,33.05
1566,32.21
1567,31.6
1568,30.99
1569,31.76
1570,33.36
1571,33.82
1572,32.75
1573,31.15
1574,29.31
1575,27.02
1576,24.43
1577,23.44
1578,25.19
1579,27.1
1580,26.18
1581,23.44
1582,20.61
1583,18.85
1584,18.55
1585,19.31
1586,19.62
1587,18.7
1588,17.18
1589,15.73
1590,14.96
1591,15.5
1592,16.79
1593,17.94
1594,19.01
1595,19.47
1596,18.78
1597,17.4
1598,17.02
1599,17.48
1600,17.48
1601,17.56
1602,18.02
1603,18.24
1604,18.32
1605,17.86
1606,16.11
1607,13.97
1608,13.89
1609,16.34
1610,18.55
1611,18.55
1612,18.02
1613,18.63
1614,19.01
1615,18.17
1616,16.26
1617,14.12
1618,12.9
1619,13.13
1620,13.59
1621,12.75
1622,10.99
1623,8.93
1624,7.25
1625,6.87
1626,7.94
1627,9.39
1628,10.38
1629,10.99
1630,10.84
1631,10.38
1632,10.23
1633,9.85
1634,9.62
1635,10.31
1636,11.15
1637,11.3
1638,11.07
1639,10.53
1640,10.08
1641,10.08
1642,10.84
1643,12.14
1644,13.59
1645,14.73
1646,14.73
1647,13.44
1648,11.53
1649,9.69
1650,8.55
1651,8.47
1652,9.47
1653,10.23
1654,9.62
1655,8.17
1656,6.26
1657,2.98
1658,-0.15
1659,-1.68
1660,-1.91
1661,-2.21
1662,-3.05
1663,-3.66
1664,-4.12
1665,-5.42
1666,-7.71
1667,-9.47
1668,-9.31
1669,-8.47
1670,-8.47
1671,-8.63
1672,-8.85
1673,-10.15
1674,-11.83
1675,-12.37
1676,-12.29
1677,-11.98
1678,-11.68
1679,-10.99
1680,-9.77
1681,-9.08
1682,-9.85
1683,-10.61
1684,-9.92
1685,-7.71
1686,-4.89
1687,-2.67
1688,-1.91
1689,-2.67
1690,-4.96
1691,-7.25
1692,-7.63
1693,-6.11
1694,-4.5
1695,-4.27
1696,-5.65
1697,-7.4
1698,-8.93
1699,-11.76
1700,-15.27
1701,-16.26
1702,-14.58
1703,-12.37
1704,-11.6
1705,-12.29
1706,-13.28
1707,-13.82
1708,-13.82
1709,-13.82
1710,-13.66
1711,-12.6
1712,-11.22
1713,-10.69
1714,-11.15
1715,-11.53
1716,-10.92
1717,-10.31
1718,-9.77
1719,-8.24
1720,-5.95
1721,-4.5
1722,-5.04
1723,-6.87
1724,-8.09
1725,-8.55
1726,-9.16
1727,-9.77
1728,-9.69
1729,-9.92
1730,-11.68
1731,-14.35
1732,-16.11
1733,-16.11
1734,-15.8
1735,-16.03
1736,-16.03
1737,-15.11
1738,-14.35
1739,-14.73
1740,-17.18
1741,-20.99
1742,-22.52
1743,-20.99
1744,-19.31
1745,-19.54
1746,-21.37
1747,-23.28
1748,-24.96
1749,-26.26
1750,-27.1
1751,-27.56
1752,-27.56
1753,-27.18
1754,-27.1
1755,-27.86
1756,-29.54
1757,-31.53
1758,-32.67
1759,-32.37
1760,-31.3
1761,-30.23
1762,-29.69
1763,-30.38
1764,-32.44
1765,-34.5
1766,-34.58
1767,-32.06
1768,-29.92
1769,-29.69
1770,-29.92
1771,-29.85
1772,-29.92
1773,-30.76
1774,-32.6
1775,-33.89
1776,-33.74
1777,-32.52
1778,-31.22
1779,-31.07
1780,-31.83
1781,-32.6
1782,-32.82
1783,-33.36
1784,-33.66
1785,-32.21
1786,-29.92
1787,-28.93
1788,-29.85
1789,-32.44
1790,-35.65
1791,-38.4
1792,-40
1793,-40
1794,-39.31
1795,-39.16
1796,-39.85
1797,-40.76
1798,-41.53
1799,-42.21
1800,-42.21
1801,-40.69
1802,-39.16
1803,-38.93
1804,-39.69
1805,-40.92
1806,-42.44
1807,-44.27
1808,-45.88
1809,-45.88
1810,-43.51
1811,-40.84
1812,-40.61
1813,-42.75
1814,-45.73
1815,-48.7
1816,-50.92
1817,-50.99
1818,-49.16
1819,-47.63
1820,-47.33
1821,-46.72
1822,-45.27
1823,-44.89
1824,-46.18
1825,-47.86
1826,-49.39
1827,-50.61
1828,-51.3
1829,-50.99
1830,-50.08
1831,-49.92
1832,-50.92
1833,-51.68
1834,-51.37
1835,-50.76
1836,-50.38
1837,-49.62
1838,-49.01
1839,-49.31
1840,-49.69
1841,-49.92
1842,-51.22
1843,-52.98
1844,-52.67
1845,-50.23
1846,-47.56
1847,-46.72
1848,-48.4
1849,-50.92
1850,-50.99
1851,-48.7
1852,-46.41
1853,-45.73
1854,-46.72
1855,-48.63
1856,-49.85
1857,-49.85
1858,-49.39
1859,-48.4
1860,-47.18
1861,-47.18
1862,-48.09
1863,-48.78
1864,-49.16
1865,-50.23
1866,-51.83
1867,-52.75
1868,-52.37
1869,-50.61
1870,-48.78
1871,-48.85
1872,-51.22
1873,-53.82
1874,-54.81
1875,-54.43
1876,-53.59
1877,-52.52
1878,-51.22
1879,-49.85
1880,-48.32
1881,-47.79
1882,-49.54
1883,-52.37
1884,-53.66
1885,-53.21
1886,-52.67
1887,-52.37
1888,-52.14
1889,-52.37
1890,-52.82
1891,-52.9
1892,-53.21
1893,-52.82
1894,-50.76
1895,-48.7
1896,-48.02
1897,-48.09
1898,-48.55
1899,-49.16
1900,-50
1901,-50.46
1902,-49.69
1903,-48.7
1904,-49.01
1905,-49.92
1906,-51.15
1907,-53.13
1908,-54.05
1909,-52.6
1910,-51.45
1911,-51.37
1912,-51.15
1913,-50.76
1914,-51.15
1915,-52.82
1916,-55.34
1917,-56.87
1918,-56.41
1919,-54.73
1920,-53.82
1921,-54.96
1922,-57.56
1923,-60.84
1924,-63.59
1925,-64.66
1926,-64.89
1927,-65.11
1928,-64.81
1929,-64.35
1930,-64.35
1931,-64.81
1932,-65.88
1933,-67.4
1934,-67.94
1935,-66.64
1936,-65.19
1937,-64.89
1938,-64.81
1939,-64.35
1940,-64.05
1941,-64.43
1942,-64.73
1943,-64.5
1944,-64.12
1945,-63.13
1946,-61.76
1947,-61.3
1948,-62.52
1949,-64.35
1950,-65.19
1951,-64.35
1952,-62.67
1953,-61.07
1954,-60.69
1955,-61.53
1956,-62.75
1957,-63.66
1958,-63.97
1959,-63.36
1960,-61.98
1961,-60.31
1962,-59.31
1963,-59.92
1964,-61.76
1965,-63.13
1966,-62.98
1967,-61.53
1968,-59.69
1969,-58.32
1970,-57.79
1971,-58.4
1972,-59.85
1973,-61.37
1974,-61.83
1975,-61.68
1976,-61.53
1977,-60.31
1978,-58.17
1979,-56.56
1980,-55.95
1981,-56.56
1982,-58.09
1983,-59.16
1984,-59.62
1985,-59.92
1986,-59.77
1987,-58.93
1988,-58.24
1989,-58.09
1990,-58.17
1991,-59.24
1992,-60.76
1993,-60.46
1994,-58.17
1995,-56.79
1996,-57.56
1997,-58.55
1998,-58.63
1999,-58.85
2000,-59.01
2001,-57.48
2002,-55.11
2003,-53.59
2004,-53.51
2005,-54.96
2006,-57.33
2007,-58.02
2008,-56.79
2009,-55.95
2010,-55.34
2011,-54.12
2012,-53.66
2013,-54.05
2014,-54.96
2015,-57.18
2016,-59.54
2017,-59.92
2018,-59.01
2019,-58.32
2020,-57.71
2021,-56.03
2022,-54.81
2023,-56.26
2024,-59.31
2025,-61.45
2026,-60.61
2027,-57.79
2028,-56.26
2029,-57.18
2030,-57.71
2031,-56.87
2032,-57.02
2033,-58.85
2034,-60.15
2035,-59.62
2036,-58.09
2037,-56.49
2038,-54.58
2039,-52.82
2040,-52.75
2041,-54.43
2042,-56.18
2043,-56.64
2044,-55.95
2045,-55.42
2046,-55.5
2047,-55.95
2048,-56.49
2049,-56.34
2050,-56.03
2051,-56.64
2052,-57.63
2053,-57.02
2054,-55.27
2055,-54.43
2056,-55.5
2057,-56.79
2058,-56.18
2059,-53.51
2060,-50.08
2061,-47.71
2062,-47.48
2063,-48.93
2064,-50.92
2065,-52.06
2066,-51.45
2067,-50.31
2068,-49.92
2069,-49.85
2070,-49.31
2071,-48.78
2072,-49.92
2073,-53.28
2074,-56.64
2075,-57.18
2076,-55.04
2077,-53.59
2078,-54.05
2079,-54.35
2080,-54.12
2081,-54.81
2082,-56.64
2083,-58.17
2084,-58.47
2085,-57.63
2086,-55.73
2087,-53.51
2088,-52.29
2089,-53.36
2090,-55.95
2091,-58.02
2092,-59.08
2093,-59.16
2094,-58.17
2095,-57.4
2096,-57.1
2097,-57.25
2098,-58.63
2099,-60.84
2100,-61.91
2101,-61.07
2102,-60.38
2103,-60.31
2104,-59.77
2105,-59.69
2106,-61.3
2107,-63.05
2108,-63.13
2109,-61.53
2110,-59.77
2111,-58.78
2112,-58.7
2113,-59.47
2114,-60.46
2115,-60.61
2116,-59.31
2117,-58.02
2118,-57.79
2119,-57.63
2120,-56.79
2121,-55.57
2122,-54.43
2123,-54.27
2124,-55.88
2125,-57.56
2126,-57.86
2127,-57.1
2128,-55.95
2129,-55.95
2130,-57.33
2131,-58.55
2132,-59.16
2133,-59.31
2134,-58.63
2135,-57.56
2136,-56.56
2137,-56.03
2138,-55.65
2139,-55.57
2140,-55.88
2141,-55.8
2142,-54.5
2143,-52.67
2144,-51.68
2145,-52.44
2146,-54.89
2147,-56.87
2148,-57.33
2149,-57.94
2150,-59.01
2151,-58.63
2152,-57.25
2153,-56.72
2154,-56.64
2155,-56.11
2156,-55.73
2157,-55.73
2158,-55.5
2159,-54.81
2160,-53.66
2161,-51.6
2162,-49.39
2163,-48.7
2164,-49.39
2165,-50.46
2166,-50.99
2167,-49.92
2168,-47.4
2169,-45.5
2170,-45.11
2171,-45.73
2172,-46.34
2173,-47.18
2174,-48.09
2175,-47.86
2176,-45.8
2177,-43.51
2178,-42.67
2179,-42.9
2180,-42.37
2181,-40.31
2182,-38.93
2183,-40.31
2184,-41.98
2185,-40.46
2186,-37.48
2187,-36.49
2188,-37.33
2189,-38.47
2190,-39.54
2191,-40.84
2192,-41.98
2193,-42.9
2194,-42.52
2195,-40.53
2196,-39.39
2197,-39.77
2198,-39.92
2199,-39.92
2200,-40.08
2201,-39.31
2202,-37.56
2203,-37.25
2204,-38.85
2205,-39.69
2206,-39.62
2207,-40.46
2208,-42.06
2209,-42.44
2210,-40.15
2211,-37.02
2212,-36.56
2213,-38.4
2214,-40.38
2215,-41.83
2216,-41.98
2217,-40.31
2218,-37.71
2219,-36.26
2220,-35.8
2221,-34.96
2222,-33.66
2223,-32.52
2224,-31.6
2225,-31.37
2226,-30.76
2227,-29.47
2228,-29.16
2229,-29.92
2230,-30.15
2231,-30
2232,-30.61
2233,-32.21
2234,-32.67
2235,-30.69
2236,-27.86
2237,-26.34
2238,-25.88
2239,-25.42
2240,-25.34
2241,-25.88
2242,-26.56
2243,-27.18
2244,-26.72
2245,-24.66
2246,-22.44
2247,-22.06
2248,-22.9
2249,-23.51
2250,-23.28
2251,-22.21
2252,-21.07
2253,-19.92
2254,-18.55
2255,-17.56
2256,-17.86
2257,-19.24
2258,-20.38
2259,-21.07
2260,-21.15
2261,-21.15
2262,-21.6
2263,-21.98
2264,-22.06
2265,-23.59
2266,-26.95
2267,-29.01
2268,-28.85
2269,-28.78
2270,-29.54
2271,-29.39
2272,-28.09
2273,-27.63
2274,-28.63
2275,-29.69
2276,-29.92
2277,-28.7
2278,-26.11
2279,-23.97
2280,-23.97
2281,-24.73
2282,-25.04
2283,-25.11
2284,-24.73
2285,-23.44
2286,-21.68
2287,-20.69
2288,-21.83
2289,-23.74
2290,-23.97
2291,-23.05
2292,-22.14
2293,-20.84
2294,-19.69
2295,-19.77
2296,-20.38
2297,-20.38
2298,-20.23
2299,-20
2300,-19.47
2301,-18.55
2302,-17.63
2303,-16.87
2304,-16.79
2305,-17.4
2306,-18.63
2307,-20.31
2308,-20.84
2309,-19.01
2310,-16.56
2311,-15.34
2312,-14.58
2313,-12.9
2314,-11.37
2315,-11.07
2316,-11.07
2317,-10.31
2318,-8.85
2319,-7.1
2320,-6.03
2321,-6.18
2322,-7.63
2323,-9.92
2324,-11.83
2325,-11.98
2326,-10
2327,-7.86
2328,-7.25
2329,-7.4
2330,-7.4
2331,-8.24
2332,-10
2333,-10.92
2334,-9.39
2335,-5.8
2336,-2.6
2337,-1.15
2338,-0.61
2339,0.08
2340,1.3
2341,2.82
2342,4.27
2343,5.04
2344,4.89
2345,4.12
2346,3.21
2347,2.44
2348,1.98
2349,1.68
2350,2.21
2351,4.05
2352,5.88
2353,6.56
2354,6.64
2355,6.26
2356,5.5
2357,4.58
2358,4.05
2359,4.58
2360,5.73
2361,5.65
2362,4.5
2363,2.98
2364,1.15
2365,0
2366,-0.08
2367,0.69
2368,2.06
2369,3.59
2370,4.27
2371,3.59
2372,2.52
2373,1.91
2374,1.83
2375,2.67
2376,5.04
2377,7.48
2378,8.63
2379,9.69
2380,11.15
2381,11.22
2382,9.77
2383,8.32
2384,8.4
2385,9.62
2386,10.08
2387,10
2388,10.15
2389,10.15
2390,9.39
2391,8.17
2392,7.18
2393,7.33
2394,8.85
2395,10.15
2396,9.85
2397,7.94
2398,5.73
2399,4.12
2400,3.59
2401,4.96
2402,7.63
2403,8.93
2404,8.24
2405,7.02
2406,6.56
2407,6.34
2408,5.95
2409,6.56
2410,9.08
2411,11.76
2412,12.29
2413,10.99
2414,9.85
2415,10.23
2416,11.37
2417,12.67
2418,13.74
2419,14.5
2420,14.81
2421,13.97
2422,12.9
2423,12.98
2424,13.05
2425,12.29
2426,12.21
2427,12.98
2428,12.75
2429,11.76
2430,11.53
2431,11.76
2432,10.31
2433,7.4
2434,6.11
2435,7.63
2436,9.77
2437,9.92
2438,7.94
2439,6.03
2440,5.57
2441,5.8
2442,5.19
2443,4.66
2444,5.19
2445,6.03
2446,6.26
2447,5.88
2448,6.11
2449,7.63
2450,9.39
2451,10.76
2452,12.67
2453,14.58
2454,14.58
2455,12.14
2456,9.54
2457,9.92
2458,12.75
2459,15.19
2460,16.11
2461,16.49
2462,16.72
2463,16.34
2464,15.11
2465,13.13
2466,11.22
2467,10.76
2468,10.92
2469,10.38
2470,9.69
2471,8.85
2472,7.56
2473,6.56
2474,6.11
2475,5.65
2476,5.8
2477,6.79
2478,7.71
2479,8.17
2480,7.86
2481,6.26
2482,4.73
2483,5.5
2484,7.56
2485,9.08
2486,9.92
2487,10.84
2488,11.91
2489,12.06
2490,11.53
2491,11.83
2492,12.98
2493,13.74
2494,14.58
2495,16.26
2496,18.09
2497,18.93
2498,18.93
2499,18.09
2500,16.87
2501,16.49
2502,17.18
2503,17.71
2504,17.4
2505,16.26
2506,14.5
2507,12.44
2508,10.92
2509,10.53
2510,11.3
2511,12.21
2512,11.98
2513,10.31
2514,7.48
2515,4.81
2516,3.51
2517,3.74
2518,4.96
2519,6.49
2520,7.63
2521,8.24
2522,9.16
2523,10.08
2524,10.38
2525,10.38
2526,10.84
2527,12.52
2528,15.11
2529,16.56
2530,15.42
2531,12.14
2532,9.01
2533,7.86
2534,8.63
2535,9.85
2536,10.76
2537,10.46
2538,8.85
2539,7.1
2540,6.11
2541,5.73
2542,6.18
2543,7.02
2544,7.4
2545,7.79
2546,8.32
2547,8.63
2548,8.85
2549,9.16
2550,9.92
2551,11.07
2552,12.06
2553,12.29
2554,11.68
2555,10.38
2556,9.08
2557,8.02
2558,7.48
2559,7.86
2560,8.63
2561,8.55
2562,6.87
2563,4.2
2564,1.91
2565,1.45
2566,0.69
2567,-1.45
2568,-2.29
2569,-0.15
2570,1.53
2571,0.76
2572,-0.76
2573,-2.06
2574,-3.74
2575,-4.96
2576,-4.2
2577,-2.6
2578,-1.83
2579,-1.53
2580,-1.45
2581,-1.76
2582,-2.06
2583,-2.29
2584,-2.37
2585,-2.44
2586,-3.05
2587,-4.27
2588,-4.96
2589,-4.96
2590,-5.65
2591,-6.64
2592,-6.03
2593,-3.59
2594,-0.84
2595,0.08
2596,-0.38
2597,-1.22
2598,-2.21
2599,-2.9
2600,-2.75
2601,-2.44
2602,-2.21
2603,-1.15
2604,0.76
2605,0.99
2606,-0.46
2607,-1.76
2608,-3.05
2609,-5.27
2610,-6.64
2611,-5.88
2612,-4.58
2613,-4.81
2614,-6.11
2615,-6.87
2616,-7.71
2617,-8.93
2618,-8.85
2619,-7.4
2620,-6.03
2621,-5.27
2622,-5.27
2623,-6.49
2624,-7.33
2625,-5.5
2626,-2.75
2627,-1.68
2628,-1.37
2629,-0.53
2630,0
2631,-0.69
2632,-2.37
2633,-3.74
2634,-3.66
2635,-2.9
2636,-3.05
2637,-3.82
2638,-4.81
2639,-6.56
2640,-8.85
2641,-10.38
2642,-10.76
2643,-10.61
2644,-10.31
2645,-10
2646,-10.23
2647,-11.22
2648,-12.21
2649,-12.67
2650,-12.75
2651,-11.98
2652,-9.92
2653,-7.86
2654,-7.1
2655,-8.02
2656,-10
2657,-10.99
2658,-9.54
2659,-7.63
2660,-6.26
2661,-4.58
2662,-3.13
2663,-2.9
2664,-4.05
2665,-5.65
2666,-5.73
2667,-4.2
2668,-2.9
2669,-2.44
2670,-3.21
2671,-3.97
2672,-3.13
2673,-2.06
2674,-2.37
2675,-3.13
2676,-2.29
2677,0.61
2678,3.05
2679,3.13
2680,2.14
2681,0.84
2682,-1.07
2683,-3.05
2684,-4.43
2685,-4.73
2686,-4.35
2687,-3.82
2688,-4.12
2689,-6.26
2690,-9.31
2691,-11.3
2692,-12.06
2693,-12.44
2694,-12.14
2695,-11.6
2696,-11.68
2697,-12.21
2698,-13.05
2699,-13.44
2700,-13.13
2701,-13.28
2702,-13.89
2703,-13.59
2704,-12.37
2705,-11.83
2706,-12.21
2707,-11.83
2708,-10.61
2709,-9.62
2710,-8.24
2711,-6.34
2712,-4.89
2713,-4.89
2714,-5.73
2715,-6.03
2716,-5.19
2717,-3.59
2718,-1.91
2719,-0.92
2720,-1.07
2721,-1.68
2722,-1.83
2723,-1.98
2724,-2.44
2725,-1.91
2726,-0.08
2727,1.15
2728,0.76
2729,-0.08
2730,-0.46
2731,-0.53
2732,-0.99
2733,-2.14
2734,-3.05
2735,-2.52
2736,-2.06
2737,-3.74
2738,-6.41
2739,-7.71
2740,-7.94
2741,-8.55
2742,-8.85
2743,-8.09
2744,-7.33
2745,-7.02
2746,-7.02
2747,-7.48
2748,-8.78
2749,-10.15
2750,-10.99
2751,-10.84
2752,-10.08
2753,-9.85
2754,-10.08
2755,-9.31
2756,-8.24
2757,-8.47
2758,-9.16
2759,-7.79
2760,-4.73
2761,-2.67
2762,-2.21
2763,-2.14
2764,-2.37
2765,-2.98
2766,-2.6
2767,-1.83
2768,-1.53
2769,-1.15
2770,-0.69
2771,-1.15
2772,-2.44
2773,-4.12
2774,-6.11
2775,-7.18
2776,-6.72
2777,-6.03
2778,-5.57
2779,-5.5
2780,-6.87
2781,-8.93
2782,-9.24
2783,-8.4
2784,-8.09
2785,-8.32
2786,-8.17
2787,-7.48
2788,-7.4
2789,-8.78
2790,-10.92
2791,-12.67
2792,-13.13
2793,-11.68
2794,-10.23
2795,-11.53
2796,-13.74
2797,-14.35
2798,-14.58
2799,-15.65
2800,-16.03
2801,-14.81
2802,-14.35
2803,-15.73
2804,-16.72
2805,-15.95
2806,-15.19
2807,-15.57
2808,-15.73
2809,-15.19
2810,-14.35
2811,-13.36
2812,-12.75
2813,-12.37
2814,-12.21
2815,-12.6
2816,-12.52
2817,-11.53
2818,-10.69
2819,-10.38
2820,-10.61
2821,-11.3
2822,-12.82
2823,-15.27
2824,-17.4
2825,-18.17
2826,-17.56
2827,-15.42
2828,-13.05
2829,-12.06
2830,-12.67
2831,-13.82
2832,-14.96
2833,-15.5
2834,-14.73
2835,-12.52
2836,-10.46
2837,-10.23
2838,-11.3
2839,-11.68
2840,-11.3
2841,-11.45
2842,-12.14
2843,-13.13
2844,-14.27
2845,-15.8
2846,-17.86
2847,-19.85
2848,-21.37
2849,-22.6
2850,-23.59
2851,-23.66
2852,-22.98
2853,-22.29
2854,-22.9
2855,-24.5
2856,-26.18
2857,-26.79
2858,-25.57
2859,-23.13
2860,-20.69
2861,-18.63
2862,-17.25
2863,-16.26
2864,-15.5
2865,-15.42
2866,-16.03
2867,-15.8
2868,-14.58
2869,-12.98
2870,-11.3
2871,-9.54
2872,-8.09
2873,-7.48
2874,-8.24
2875,-9.24
2876,-8.85
2877,-7.18
2878,-5.8
2879,-5.73
2880,-6.72
2881,-7.56
2882,-7.86
2883,-7.63
2884,-6.72
2885,-4.96
2886,-3.59
2887,-3.66
2888,-3.97
2889,-4.2
2890,-5.19
2891,-5.57
2892,-3.82
2893,-1.22
2894,0
2895,-0.08
2896,0.08
2897,0.92
2898,1.45
2899,1.3
2900,0.99
2901,1.07
2902,2.6
2903,4.81
2904,6.41
2905,6.87
2906,6.18
2907,4.66
2908,4.27
2909,6.03
2910,7.86
2911,8.17
2912,6.72
2913,4.73
2914,3.36
2915,2.21
2916,1.15
2917,1.76
2918,4.05
2919,6.26
2920,7.48
2921,7.86
2922,7.79
2923,7.56
2924,7.71
2925,8.17
2926,8.78
2927,9.92
2928,11.07
2929,11.15
2930,10
2931,8.17
2932,5.73
2933,2.6
2934,0.69
2935,0.99
2936,2.21
2937,2.6
2938,1.98
2939,0.92
2940,-0.38
2941,-1.91
2942,-3.82
2943,-6.72
2944,-9.24
2945,-10
2946,-10.23
2947,-11.37
2948,-12.67
2949,-13.13
2950,-12.82
2951,-11.53
2952,-8.63
2953,-5.73
2954,-4.89
2955,-5.5
2956,-6.18
2957,-7.02
2958,-7.48
2959,-6.79
2960,-5.8
2961,-5.19
2962,-4.96
2963,-4.81
2964,-5.5
2965,-6.87
2966,-7.71
2967,-6.56
2968,-4.05
2969,-1.98
2970,-1.37
2971,-2.06
2972,-3.36
2973,-4.05
2974,-3.51
2975,-2.06
2976,0.08
2977,2.06
2978,2.37
2979,1.07
2980,0
2981,0
2982,0.08
2983,0.31
2984,2.06
2985,3.74
2986,3.51
2987,3.13
2988,4.43
2989,5.8
2990,5.19
2991,3.97
2992,4.12
2993,6.03
2994,8.7
2995,10.76
2996,11.15
2997,9.01
2998,6.11
2999,4.5
3000,4.2
3001,5.04
3002,6.26
3003,5.57
3004,2.82
3005,-0.23
3006,-3.59
3007,-7.48
3008,-10.53
3009,-11.98
3010,-11.3
3011,-9.77
3012,-9.16
3013,-9.54
3014,-10.23
3015,-10.23
3016,-9.08
3017,-7.63
3018,-6.56
3019,-5.57
3020,-4.43
3021,-3.36
3022,-3.05
3023,-3.44
3024,-3.28
3025,-1.98
3026,-0.69
3027,-0.76
3028,-2.14
3029,-2.52
3030,-1.07
3031,-0.08
3032,-0.61
3033,-2.06
3034,-3.44
3035,-3.44
3036,-2.14
3037,-1.3
3038,-2.06
3039,-3.82
3040,-4.96
3041,-4.58
3042,-4.2
3043,-4.66
3044,-5.5
3045,-6.03
3046,-5.5
3047,-4.73
3048,-5.27
3049,-6.64
3050,-7.25
3051,-7.63
3052,-8.47
3053,-9.24
3054,-9.47
3055,-9.85
3056,-10.53
3057,-11.3
3058,-11.53
3059,-11.15
3060,-10.23
3061,-9.01
3062,-8.02
3063,-8.09
3064,-9.24
3065,-10.76
3066,-11.53
3067,-10.38
3068,-7.33
3069,-4.12
3070,-2.9
3071,-3.36
3072,-3.59
3073,-3.21
3074,-2.6
3075,-0.61
3076,1.45
3077,1.53
3078,0.53
3079,0.61
3080,1.37
3081,1.76
3082,1.98
3083,2.21
3084,3.13
3085,4.5
3086,5.04
3087,4.73
3088,4.27
3089,3.44
3090,1.15
3091,-1.15
3092,-0.92
3093,0.99
3094,2.21
3095,1.98
3096,0.84
3097,-1.22
3098,-3.74
3099,-5.27
3100,-5.34
3101,-4.27
3102,-2.44
3103,0
3104,1.76
3105,1.45
3106,-0.38
3107,-2.29
3108,-4.05
3109,-5.8
3110,-6.87
3111,-6.72
3112,-6.03
3113,-6.26
3114,-7.94
3115,-9.31
3116,-9.01
3117,-7.56
3118,-5.5
3119,-4.27
3120,-4.96
3121,-5.8
3122,-5.5
3123,-5.57
3124,-7.33
3125,-9.16
3126,-9.77
3127,-9.47
3128,-9.08
3129,-8.7
3130,-8.32
3131,-8.93
3132,-10.92
3133,-12.6
3134,-11.83
3135,-9.69
3136,-9.08
3137,-10.15
3138,-11.45
3139,-12.82
3140,-14.81
3141,-16.41
3142,-16.41
3143,-14.96
3144,-13.74
3145,-14.43
3146,-16.26
3147,-17.33
3148,-17.63
3149,-18.02
3150,-17.94
3151,-16.87
3152,-15.5
3153,-14.81
3154,-15.04
3155,-15.65
3156,-16.11
3157,-16.49
3158,-17.33
3159,-18.02
3160,-17.79
3161,-17.33
3162,-17.56
3163,-18.02
3164,-18.24
3165,-19.01
3166,-20.15
3167,-20.38
3168,-19.24
3169,-18.17
3170,-18.02
3171,-18.55
3172,-19.54
3173,-20.69
3174,-21.91
3175,-22.37
3176,-21.22
3177,-19.08
3178,-17.33
3179,-16.41
3180,-16.41
3181,-17.18
3182,-18.32
3183,-18.85
3184,-17.79
3185,-14.96
3186,-11.98
3187,-11.68
3188,-13.97
3189,-15.88
3190,-15.95
3191,-15.34
3192,-15.5
3193,-15.8
3194,-15.42
3195,-14.73
3196,-14.43
3197,-14.73
3198,-15.57
3199,-15.73
3200,-15.73
3201,-15.73
3202,-15.65
3203,-16.03
3204,-17.18
3205,-19.24
3206,-22.21
3207,-24.2
3208,-24.73
3209,-25.19
3210,-25.73
3211,-26.26
3212,-27.4
3213,-29.01
3214,-30.53
3215,-31.6
3216,-31.3
3217,-30.08
3218,-28.93
3219,-27.94
3220,-27.18
3221,-26.87
3222,-26.95
3223,-27.71
3224,-29.08
3225,-30.76
3226,-32.29
3227,-32.9
3228,-32.52
3229,-32.6
3230,-34.27
3231,-36.18
3232,-36.03
3233,-33.89
3234,-31.91
3235,-30.84
3236,-29.54
3237,-27.79
3238,-26.79
3239,-26.56
3240,-26.49
3241,-26.26
3242,-25.73
3243,-25.42
3244,-24.58
3245,-22.44
3246,-20.92
3247,-21.6
3248,-22.98
3249,-23.97
3250,-25.19
3251,-25.73
3252,-23.97
3253,-21.37
3254,-21.07
3255,-23.51
3256,-26.56
3257,-29.24
3258,-30.23
3259,-28.7
3260,-26.34
3261,-25.11
3262,-25.57
3263,-27.02
3264,-27.79
3265,-26.95
3266,-25.88
3267,-25.65
3268,-24.73
3269,-22.37
3270,-20.53
3271,-20.84
3272,-21.37
3273,-20.92
3274,-20
3275,-18.93
3276,-17.86
3277,-17.25
3278,-17.1
3279,-17.48
3280,-18.17
3281,-19.31
3282,-21.22
3283,-23.21
3284,-23.82
3285,-23.44
3286,-23.74
3287,-25.57
3288,-27.94
3289,-29.16
3290,-29.39
3291,-30.15
3292,-31.07
3293,-31.37
3294,-30.92
3295,-30.46
3296,-30.99
3297,-32.67
3298,-34.89
3299,-36.87
3300,-37.86
3301,-37.25
3302,-36.26
3303,-35.65
3304,-35.34
3305,-35.73
3306,-37.25
3307,-39.16
3308,-40.08
3309,-39.47
3310,-38.02
3311,-36.34
3312,-35.34
3313,-36.49
3314,-37.94
3315,-37.86
3316,-37.86
3317,-37.63
3318,-35.34
3319,-32.14
3320,-29.39
3321,-27.56
3322,-27.18
3323,-28.24
3324,-29.24
3325,-29.85
3326,-30.15
3327,-29.85
3328,-29.16
3329,-28.32
3330,-27.18
3331,-27.4
3332,-29.16
3333,-29.69
3334,-28.17
3335,-26.34
3336,-25.04
3337,-24.27
3338,-24.58
3339,-25.42
3340,-26.49
3341,-28.17
3342,-29.77
3343,-30.38
3344,-29.85
3345,-28.93
3346,-28.78
3347,-29.62
3348,-30.84
3349,-32.37
3350,-33.51
3351,-33.21
3352,-31.6
3353,-30.53
3354,-31.6
3355,-33.51
3356,-33.97
3357,-32.82
3358,-31.22
3359,-29.92
3360,-30.08
3361,-30.61
3362,-30.15
3363,-30.31
3364,-31.76
3365,-33.05
3366,-33.66
3367,-33.51
3368,-32.21
3369,-30.46
3370,-29.85
3371,-30.99
3372,-32.98
3373,-35.57
3374,-37.63
3375,-37.1
3376,-34.58
3377,-32.98
3378,-32.82
3379,-32.98
3380,-32.75
3381,-32.98
3382,-33.82
3383,-34.35
3384,-33.82
3385,-32.44
3386,-31.15
3387,-30.99
3388,-32.21
3389,-33.44
3390,-34.35
3391,-35.42
3392,-36.03
3393,-35.19
3394,-34.35
3395,-34.89
3396,-35.11
3397,-34.96
3398,-35.73
3399,-37.02
3400,-36.87
3401,-34.81
3402,-33.51
3403,-34.43
3404,-35.88
3405,-36.18
3406,-36.26
3407,-37.25
3408,-37.94
3409,-37.48
3410,-36.34
3411,-35.57
3412,-36.11
3413,-37.02
3414,-37.1
3415,-36.41
3416,-35.73
3417,-34.73
3418,-33.28
3419,-32.44
3420,-32.82
3421,-34.5
3422,-36.79
3423,-38.63
3424,-39.85
3425,-40
3426,-38.63
3427,-37.02
3428,-36.56
3429,-37.1
3430,-37.33
3431,-37.56
3432,-38.63
3433,-39.77
3434,-39.08
3435,-37.48
3436,-36.79
3437,-37.1
3438,-37.56
3439,-38.78
3440,-40.84
3441,-42.14
3442,-41.37
3443,-39.47
3444,-37.71
3445,-36.64
3446,-36.18
3447,-35.88
3448,-35.04
3449,-34.5
3450,-34.96
3451,-34.96
3452,-33.51
3453,-31.98
3454,-31.37
3455,-31.07
3456,-30.15
3457,-29.16
3458,-28.24
3459,-27.18
3460,-26.41
3461,-26.03
3462,-25.57
3463,-25.27
3464,-25.65
3465,-26.41
3466,-26.72
3467,-26.41
3468,-26.18
3469,-27.33
3470,-29.69
3471,-31.22
3472,-31.68
3473,-32.14
3474,-33.13
3475,-34.66
3476,-35.95
3477,-36.11
3478,-35.73
3479,-36.18
3480,-38.02
3481,-40.53
3482,-42.06
3483,-41.98
3484,-40.53
3485,-38.55
3486,-37.1
3487,-36.41
3488,-36.26
3489,-36.56
3490,-36.87
3491,-36.95
3492,-36.34
3493,-35.42
3494,-34.35
3495,-33.44
3496,-33.59
3497,-34.2
3498,-34.35
3499,-34.58
3500,-34.35
3501,-34.12
3502,-34.81
3503,-35.34
3504,-34.43
3505,-33.36
3506,-33.59
3507,-33.66
3508,-32.44
3509,-31.07
3510,-29.77
3511,-27.86
3512,-25.95
3513,-24.58
3514,-24.12
3515,-24.5
3516,-25.04
3517,-24.43
3518,-22.9
3519,-21.45
3520,-20.69
3521,-20.84
3522,-21.6
3523,-22.44
3524,-22.98
3525,-22.98
3526,-22.29
3527,-21.45
3528,-21.15
3529,-20.99
3530,-21.15
3531,-22.14
3532,-24.05
3533,-25.42
3534,-24.73
3535,-23.13
3536,-23.05
3537,-24.5
3538,-25.73
3539,-25.8
3540,-26.03
3541,-27.71
3542,-28.7
3543,-28.17
3544,-28.32
3545,-29.54
3546,-30.69
3547,-31.83
3548,-32.82
3549,-32.82
3550,-32.06
3551,-30.99
3552,-28.4
3553,-24.5
3554,-22.29
3555,-22.44
3556,-23.05
3557,-23.82
3558,-24.2
3559,-23.05
3560,-20.92
3561,-20.23
3562,-21.15
3563,-21.76
3564,-21.83
3565,-22.44
3566,-23.44
3567,-23.89
3568,-24.35
3569,-24.5
3570,-23.66
3571,-22.9
3572,-22.82
3573,-21.98
3574,-20.38
3575,-19.31
3576,-18.93
3577,-18.32
3578,-18.17
3579,-18.7
3580,-18.93
3581,-18.55
3582,-18.24
3583,-19.01
3584,-19.54
3585,-18.47
3586,-16.56
3587,-15.27
3588,-15.11
3589,-15.88
3590,-16.26
3591,-15.42
3592,-14.35
3593,-13.74
3594,-12.14
3595,-9.47
3596,-8.17
3597,-8.78
3598,-10.31
3599,-11.37
3600,-11.15
3601,-10.38
3602,-10.38
3603,-10.53
3604,-9.92
3605,-9.62
3606,-11.07
3607,-12.9
3608,-12.82
3609,-12.21
3610,-12.6
3611,-12.52
3612,-11.3
3613,-11.37
3614,-13.44
3615,-14.73
3616,-14.35
3617,-13.51
3618,-12.82
3619,-11.76
3620,-10.61
3621,-10.46
3622,-11.68
3623,-13.28
3624,-13.74
3625,-13.44
3626,-12.98
3627,-12.52
3628,-12.67
3629,-13.28
3630,-14.35
3631,-16.11
3632,-17.86
3633,-18.32
3634,-17.56
3635,-16.26
3636,-15.8
3637,-17.33
3638,-19.62
3639,-20.76
3640,-21.22
3641,-21.45
3642,-20.31
3643,-18.02
3644,-16.11
3645,-15.27
3646,-15.5
3647,-16.64
3648,-18.17
3649,-18.93
3650,-18.7
3651,-17.86
3652,-16.95
3653,-16.49
3654,-16.95
3655,-17.33
3656,-16.64
3657,-15.95
3658,-16.64
3659,-17.71
3660,-17.56
3661,-16.11
3662,-15.11
3663,-15.04
3664,-14.89
3665,-14.35
3666,-14.66
3667,-15.8
3668,-16.11
3669,-14.5
3670,-12.06
3671,-11.45
3672,-13.05
3673,-14.58
3674,-14.96
3675,-15.27
3676,-16.03
3677,-16.64
3678,-17.4
3679,-18.09
3680,-18.85
3681,-19.62
3682,-19.47
3683,-18.78
3684,-18.47
3685,-17.18
3686,-14.89
3687,-12.98
3688,-12.37
3689,-12.9
3690,-14.66
3691,-16.56
3692,-16.87
3693,-15.65
3694,-14.43
3695,-14.12
3696,-14.43
3697,-15.8
3698,-17.56
3699,-18.4
3700,-18.4
3701,-17.79
3702,-16.03
3703,-14.35
3704,-14.27
3705,-15.34
3706,-16.87
3707,-18.4
3708,-18.32
3709,-16.87
3710,-15.65
3711,-15.65
3712,-16.41
3713,-16.87
3714,-17.4
3715,-18.78
3716,-20.31
3717,-20.15
3718,-18.47
3719,-17.4
3720,-17.71
3721,-17.86
3722,-17.33
3723,-17.63
3724,-19.24
3725,-20.99
3726,-21.3
3727,-20.31
3728,-19.08
3729,-17.86
3730,-17.33
3731,-18.09
3732,-18.93
3733,-18.47
3734,-16.72
3735,-13.97
3736,-11.91
3737,-10.46
3738,-9.01
3739,-8.93
3740,-11.22
3741,-13.82
3742,-14.81
3743,-14.5
3744,-13.89
3745,-13.44
3746,-13.44
3747,-13.51
3748,-13.36
3749,-12.9
3750,-13.28
3751,-13.82
3752,-12.67
3753,-10.38
3754,-9.39
3755,-10.23
3756,-10.99
3757,-10.53
3758,-9.31
3759,-7.63
3760,-5.95
3761,-5.95
3762,-7.56
3763,-8.24
3764,-7.48
3765,-6.41
3766,-6.56
3767,-8.02
3768,-9.24
3769,-9.16
3770,-8.02
3771,-7.4
3772,-8.63
3773,-10.84
3774,-11.98
3775,-11.22
3776,-9.39
3777,-7.79
3778,-6.87
3779,-6.49
3780,-6.11
3781,-6.49
3782,-7.71
3783,-8.09
3784,-6.79
3785,-4.66
3786,-2.52
3787,-1.6
3788,-2.06
3789,-1.91
3790,-0.38
3791,0.31
3792,-0.08
3793,0
3794,1.37
3795,2.6
3796,3.21
3797,3.13
3798,2.06
3799,1.15
3800,2.44
3801,5.65
3802,8.17
3803,7.48
3804,4.43
3805,2.6
3806,2.6
3807,1.68
3808,0.38
3809,1.15
3810,2.82
3811,3.44
3812,3.28
3813,3.28
3814,3.44
3815,3.51
3816,2.75
3817,1.15
3818,0.31
3819,1.76
3820,4.66
3821,6.18
3822,5.95
3823,5.42
3824,5.57
3825,7.4
3826,10.23
3827,11.91
3828,11.91
3829,10.92
3830,9.62
3831,9.01
3832,8.78
3833,7.63
3834,6.18
3835,6.49
3836,8.02
3837,8.78
3838,8.63
3839,7.86
3840,6.95
3841,7.1
3842,8.09
3843,8.47
3844,8.4
3845,8.78
3846,8.4
3847,6.18
3848,3.59
3849,2.21
3850,2.06
3851,1.98
3852,1.6
3853,1.45
3854,1.98
3855,1.91
3856,1.07
3857,0.31
3858,0.23
3859,0.38
3860,0.76
3861,1.91
3862,3.28
3863,3.59
3864,3.28
3865,3.05
3866,2.29
3867,1.91
3868,2.9
3869,4.35
3870,5.27
3871,5.42
3872,4.35
3873,3.28
3874,3.74
3875,4.35
3876,4.12
3877,3.89
3878,3.97
3879,3.89
3880,2.98
3881,1.3
3882,-0.15
3883,-0.99
3884,-0.84
3885,0.08
3886,1.37
3887,2.98
3888,3.97
3889,3.05
3890,1.68
3891,1.53
3892,2.29
3893,3.13
3894,4.12
3895,4.81
3896,3.97
3897,1.68
3898,-0.08
3899,-0.84
3900,-1.68
3901,-1.15
3902,1.53
3903,3.82
3904,3.74
3905,2.29
3906,0.84
3907,0.08
3908,0.46
3909,1.15
3910,1.76
3911,2.82
3912,3.66
3913,3.51
3914,2.98
3915,2.98
3916,2.82
3917,2.37
3918,3.05
3919,4.27
3920,4.58
3921,3.74
3922,1.91
3923,-0.08
3924,-0.61
3925,-0.08
3926,0.61
3927,2.37
3928,4.5
3929,5.57
3930,5.5
3931,5.34
3932,5.34
3933,5.34
3934,5.19
3935,5.5
3936,6.56
3937,7.25
3938,6.72
3939,5.5
3940,4.5
3941,4.35
3942,5.42
3943,7.33
3944,9.16
3945,10
3946,9.31
3947,7.86
3948,7.02
3949,7.02
3950,7.71
3951,8.93
3952,9.92
3953,9.69
3954,8.93
3955,8.47
3956,8.4
3957,8.78
3958,9.77
3959,11.07
3960,11.37
3961,11.07
3962,11.37
3963,12.44
3964,13.05
3965,12.21
3966,10.08
3967,8.55
3968,9.08
3969,9.69
3970,8.32
3971,5.57
3972,3.44
3973,2.44
3974,2.6
3975,3.44
3976,5.11
3977,7.33
3978,9.01
3979,10
3980,10.53
3981,10.31
3982,9.77
3983,9.69
3984,9.77
3985,9.69
3986,10
3987,10.69
3988,11.07
3989,10.69
3990,10.08
3991,8.85
3992,7.79
3993,8.7
3994,11.22
3995,13.36
3996,14.66
3997,15.11
3998,14.5
3999,13.82
4000,13.97
4001,14.12
4002,13.51
4003,12.14
4004,10.76
4005,10.15
4006,9.92
4007,9.08
4008,8.17
4009,8.55
4010,9.85
4011,10.76
4012,10.38
4013,9.31
4014,9.08
4015,10.15
4016,11.91
4017,12.82
4018,13.21
4019,14.35
4020,15.95
4021,16.72
4022,16.03
4023,14.12
4024,12.75
4025,12.75
4026,13.82
4027,14.73
4028,14.81
4029,14.5
4030,14.2
4031,13.44
4032,12.52
4033,12.14
4034,11.98
4035,11.37
4036,10.76
4037,10.61
4038,10.61
4039,9.92
4040,7.86
4041,5.34
4042,5.19
4043,7.48
4044,9.54
4045,10
4046,9.92
4047,10.61
4048,11.6
4049,11.68
4050,11.22
4051,11.91
4052,13.36
4053,14.2
4054,14.35
4055,14.12
4056,13.44
4057,12.67
4058,12.6
4059,13.44
4060,15.19
4061,16.56
4062,16.18
4063,14.96
4064,14.5
4065,14.66
4066,13.89
4067,12.37
4068,11.45
4069,11.3
4070,11.3
4071,11.3
4072,10.99
4073,10
4074,9.01
4075,9.01
4076,10.15
4077,11.37
4078,11.83
4079,11.37
4080,9.77
4081,7.33
4082,5.5
4083,5.19
4084,5.88
4085,6.79
4086,7.33
4087,7.48
4088,7.63
4089,7.4
4090,6.18
4091,5.04
4092,5.34
4093,7.25
4094,9.77
4095,11.53
4096,11.53
4097,10.23
4098,8.93
4099,8.55
4100,8.85
4101,9.62
4102,11.22
4103,13.44
4104,14.2
4105,13.82
4106,14.05
4107,14.96
4108,15.95
4109,16.95
4110,17.63
4111,18.85
4112,20.99
4113,22.67
4114,22.98
4115,22.9
4116,22.98
4117,23.36
4118,24.12
4119,25.19
4120,25.19
4121,23.97
4122,23.21
4123,22.75
4124,20.92
4125,18.78
4126,18.09
4127,18.24
4128,17.79
4129,16.87
4130,16.56
4131,15.73
4132,13.13
4133,10.69
4134,10.99
4135,13.05
4136,14.12
4137,13.51
4138,12.82
4139,12.9
4140,13.13
4141,13.05
4142,12.37
4143,11.07
4144,10.08
4145,9.77
4146,9.85
4147,10.31
4148,9.77
4149,7.79
4150,6.79
4151,8.32
4152,10.31
4153,11.22
4154,10.76
4155,9.31
4156,7.71
4157,6.56
4158,6.26
4159,6.64
4160,7.56
4161,8.85
4162,10.31
4163,10.92
4164,10.46
4165,9.85
4166,10.46
4167,12.14
4168,13.82
4169,14.96
4170,15.04
4171,14.35
4172,14.5
4173,15.27
4174,15.8
4175,16.18
4176,17.33
4177,19.16
4178,20.53
4179,20.46
4180,19.16
4181,17.4
4182,15.95
4183,16.18
4184,18.17
4185,20.46
4186,21.6
4187,21.37
4188,20.53
4189,19.47
4190,18.09
4191,17.33
4192,17.79
4193,19.16
4194,20.69
4195,21.45
4196,20.84
4197,19.31
4198,17.71
4199,16.26
4200,15.27
4201,15.19
4202,15.04
4203,13.97
4204,12.52
4205,11.83
4206,10.99
4207,8.85
4208,6.56
4209,6.18
4210,8.02
4211,9.47
4212,8.55
4213,6.79
4214,5.5
4215,3.51
4216,0.84
4217,-0.46
4218,0.15
4219,1.68
4220,2.75
4221,3.05
4222,2.52
4223,1.76
4224,1.37
4225,1.76
4226,3.66
4227,6.56
4228,8.24
4229,8.17
4230,7.79
4231,8.63
4232,9.62
4233,9.47
4234,9.85
4235,12.21
4236,15.11
4237,16.72
4238,17.02
4239,17.18
4240,17.18
4241,16.79
4242,16.64
4243,17.71
4244,19.16
4245,19.92
4246,19.62
4247,18.17
4248,15.95
4249,14.12
4250,13.66
4251,14.43
4252,14.96
4253,14.96
4254,15.11
4255,15.34
4256,15.11
4257,15.04
4258,16.03
4259,17.71
4260,18.78
4261,19.01
4262,18.63
4263,17.48
4264,15.73
4265,14.66
4266,15.11
4267,16.79
4268,19.08
4269,20.84
4270,21.3
4271,20.76
4272,19.39
4273,17.86
4274,17.02
4275,17.63
4276,19.47
4277,21.6
4278,22.67
4279,22.21
4280,21.37
4281,20.84
4282,20.08
4283,19.01
4284,18.7
4285,19.47
4286,21.3
4287,23.66
4288,24.81
4289,23.59
4290,21.53
4291,20.99
4292,22.44
4293,24.05
4294,24.66
4295,25.27
4296,25.95
4297,25.73
4298,24.81
4299,23.51
4300,22.67
4301,22.98
4302,23.44
4303,23.13
4304,21.76
4305,19.69
4306,17.18
4307,15.19
4308,15.04
4309,16.34
4310,17.56
4311,18.02
4312,18.09
4313,17.63
4314,15.57
4315,13.44
4316,13.28
4317,14.27
4318,15.27
4319,16.03
4320,16.26
4321,15.34
4322,13.36
4323,11.37
4324,10.53
4325,10.84
4326,11.76
4327,12.98
4328,14.73
4329,16.41
4330,17.33
4331,17.1
4332,16.79
4333,17.18
4334,17.33
4335,17.4
4336,18.85
4337,21.22
4338,22.52
4339,22.37
4340,21.76
4341,21.3
4342,21.15
4343,20.92
4344,20.15
4345,19.54
4346,20.08
4347,21.15
4348,21.6
4349,21.53
4350,21.45
4351,22.06
4352,23.21
4353,24.05
4354,23.51
4355,21.37
4356,18.32
4357,15.95
4358,15.34
4359,16.79
4360,18.85
4361,18.85
4362,16.41
4363,14.5
4364,14.81
4365,15.57
4366,15.34
4367,14.81
4368,14.2
4369,13.59
4370,13.59
4371,14.2
4372,13.97
4373,12.98
4374,11.98
4375,11.37
4376,11.76
4377,12.9
4378,13.89
4379,13.74
4380,12.37
4381,10.61
4382,9.92
4383,11.98
4384,15.42
4385,17.02
4386,16.64
4387,16.72
4388,16.95
4389,16.26
4390,15.11
4391,15.11
4392,16.56
4393,18.32
4394,19.16
4395,18.85
4396,18.7
4397,18.85
4398,18.7
4399,18.02
4400,17.63
4401,18.47
4402,20.38
4403,21.76
4404,22.06
4405,22.06
4406,21.91
4407,20.61
4408,19.01
4409,18.78
4410,19.39
4411,19.62
4412,19.01
4413,17.71
4414,16.11
4415,14.96
4416,14.43
4417,14.58
4418,15.57
4419,17.25
4420,19.08
4421,19.92
4422,18.93
4423,17.18
4424,16.41
4425,17.1
4426,18.55
4427,19.92
4428,20.84
4429,20.69
4430,19.77
4431,18.85
4432,18.4
4433,17.94
4434,17.94
4435,18.7
4436,19.39
4437,19.92
4438,20.46
4439,20.31
4440,18.7
4441,16.95
4442,16.49
4443,17.63
4444,19.31
4445,20.23
4446,20.46
4447,20.69
4448,20.61
4449,19.47
4450,17.94
4451,16.95
4452,17.02
4453,17.4
4454,17.56
4455,17.79
4456,17.25
4457,16.26
4458,15.88
4459,16.34
4460,17.1
4461,17.94
4462,18.85
4463,19.47
4464,19.16
4465,17.4
4466,15.95
4467,17.33
4468,20.15
4469,21.15
4470,20.31
4471,19.47
4472,19.16
4473,19.08
4474,19.08
4475,20.31
4476,23.05
4477,25.88
4478,27.18
4479,26.64
4480,24.96
4481,22.75
4482,20.61
4483,19.01
4484,18.09
4485,18.02
4486,18.7
4487,19.31
4488,18.93
4489,17.71
4490,16.34
4491,15.73
4492,15.95
4493,17.1
4494,18.93
4495,20.38
4496,20.84
4497,20.38
4498,19.31
4499,17.63
4500,16.03
4501,16.03
4502,17.94
4503,20.08
4504,20
4505,17.48
4506,14.58
4507,13.05
4508,12.75
4509,13.13
4510,14.05
4511,14.89
4512,15.11
4513,15.27
4514,14.5
4515,12.21
4516,9.77
4517,8.47
4518,8.85
4519,10.84
4520,12.9
4521,13.51
4522,13.28
4523,13.13
4524,13.66
4525,14.96
4526,15.88
4527,15.11
4528,13.66
4529,13.28
4530,13.74
4531,13.82
4532,13.21
4533,12.75
4534,12.75
4535,13.28
4536,14.89
4537,16.79
4538,17.56
4539,17.86
4540,18.02
4541,17.94
4542,18.02
4543,18.7
4544,19.69
4545,20.38
4546,19.85
4547,18.09
4548,15.88
4549,13.97
4550,13.74
4551,15.11
4552,16.34
4553,16.79
4554,16.79
4555,16.49
4556,16.03
4557,14.96
4558,13.89
4559,14.35
4560,16.18
4561,17.94
4562,18.85
4563,18.78
4564,18.32
4565,18.32
4566,18.85
4567,19.47
4568,20.99
4569,23.28
4570,24.58
4571,24.58
4572,24.2
4573,23.51
4574,22.75
4575,22.37
4576,22.37
4577,22.14
4578,22.06
4579,22.21
4580,21.07
4581,18.02
4582,15.65
4583,16.18
4584,18.32
4585,19.01
4586,17.71
4587,16.03
4588,14.96
4589,14.27
4590,13.51
4591,12.52
4592,11.53
4593,12.21
4594,14.35
4595,15.5
4596,15.34
4597,14.96
4598,13.89
4599,12.14
4600,11.07
4601,11.45
4602,13.36
4603,16.41
4604,19.24
4605,20.23
4606,18.78
4607,15.8
4608,13.21
4609,12.75
4610,13.59
4611,14.2
4612,14.27
4613,14.43
4614,13.66
4615,11.91
4616,10.76
4617,11.3
4618,12.52
4619,12.75
4620,11.76
4621,10.84
4622,10.76
4623,10.53
4624,9.62
4625,8.47
4626,8.4
4627,9.16
4628,8.78
4629,7.48
4630,7.79
4631,9.31
4632,9.85
4633,9.77
4634,10.23
4635,11.83
4636,13.74
4637,15.11
4638,15.88
4639,16.18
4640,15.5
4641,14.58
4642,15.27
4643,17.25
4644,19.08
4645,19.92
4646,19.47
4647,17.63
4648,15.11
4649,13.05
4650,12.37
4651,13.82
4652,16.87
4653,19.16
4654,18.93
4655,16.79
4656,14.2
4657,12.29
4658,11.76
4659,12.37
4660,13.21
4661,13.51
4662,12.9
4663,10.99
4664,8.02
4665,5.42
4666,4.89
4667,5.95
4668,6.87
4669,7.79
4670,9.62
4671,11.37
4672,12.29
4673,12.9
4674,12.9
4675,11.91
4676,11.3
4677,12.29
4678,13.66
4679,14.27
4680,13.82
4681,12.67
4682,11.76
4683,11.53
4684,11.6
4685,12.21
4686,14.05
4687,16.03
4688,16.11
4689,13.89
4690,11.91
4691,12.21
4692,13.66
4693,14.89
4694,15.57
4695,15.8
4696,15.88
4697,16.49
4698,16.56
4699,14.73
4700,12.44
4701,12.06
4702,12.98
4703,13.89
4704,14.89
4705,15.88
4706,15.57
4707,14.66
4708,14.58
4709,16.03
4710,18.09
4711,19.47
4712,19.85
4713,19.31
4714,17.86
4715,16.03
4716,14.89
4717,14.89
4718,15.65
4719,16.11
4720,16.49
4721,17.56
4722,18.55
4723,17.63
4724,15.8
4725,15.34
4726,16.79
4727,19.01
4728,20.23
4729,19.69
4730,18.02
4731,15.8
4732,14.12
4733,13.44
4734,12.67
4735,11.98
4736,12.06
4737,12.06
4738,10.84
4739,8.78
4740,8.02
4741,8.17
4742,7.18
4743,6.11
4744,6.64
4745,7.86
4746,7.86
4747,7.1
4748,6.87
4749,6.64
4750,6.26
4751,6.72
4752,8.55
4753,10.46
4754,11.76
4755,12.9
4756,13.36
4757,12.52
4758,11.37
4759,11.6
4760,14.27
4761,17.63
4762,19.62
4763,19.24
4764,17.18
4765,15.95
4766,17.18
4767,19.31
4768,20.61
4769,21.45
4770,21.68
4771,20.76
4772,19.24
4773,17.56
4774,16.34
4775,16.64
4776,18.24
4777,19.16
4778,19.08
4779,19.16
4780,19.54
4781,19.39
4782,18.47
4783,18.09
4784,19.39
4785,21.91
4786,23.66
4787,23.51
4788,22.67
4789,21.45
4790,19.62
4791,18.09
4792,18.09
4793,18.85
4794,18.93
4795,18.4
4796,18.55
4797,19.16
4798,19.01
4799,18.02
4800,16.72
4801,16.26
4802,17.25
4803,18.55
4804,18.63
4805,17.33
4806,15.19
4807,12.9
4808,11.91
4809,12.67
4810,13.74
4811,14.12
4812,13.74
4813,12.44
4814,9.85
4815,6.95
4816,6.03
4817,7.1
4818,8.63
4819,9.85
4820,11.3
4821,12.37
4822,10.92
4823,7.4
4824,5.19
4825,6.18
4826,8.85
4827,10.84
4828,10.99
4829,10.15
4830,9.77
4831,10
4832,10.23
4833,10.92
4834,12.21
4835,12.6
4836,11.76
4837,10.92
4838,10.69
4839,10.76
4840,10.76
4841,10.53
4842,10.61
4843,11.68
4844,13.59
4845,15.27
4846,15.95
4847,15.42
4848,14.96
4849,15.11
4850,15.95
4851,17.71
4852,19.69
4853,20.61
4854,20.61
4855,20.23
4856,19.47
4857,18.4
4858,18.09
4859,19.24
4860,21.22
4861,22.06
4862,21.07
4863,19.77
4864,19.47
4865,19.62
4866,19.31
4867,18.78
4868,18.78
4869,20.08
4870,21.53
4871,21.91
4872,21.07
4873,19.85
4874,19.47
4875,19.62
4876,19.47
4877,19.24
4878,18.93
4879,18.17
4880,16.87
4881,15.11
4882,12.98
4883,11.83
4884,12.21
4885,13.51
4886,14.73
4887,14.5
4888,13.13
4889,11.83
4890,10.69
4891,9.85
4892,9.92
4893,10.69
4894,11.76
4895,12.75
4896,12.75
4897,11.07
4898,8.55
4899,7.18
4900,7.86
4901,9.24
4902,10.46
4903,10.99
4904,11.07
4905,10.99
4906,10.46
4907,9.62
4908,9.39
4909,9.92
4910,10.76
4911,11.98
4912,12.98
4913,12.6
4914,11.45
4915,10.92
4916,10.76
4917,10.61
4918,10.76
4919,11.53
4920,12.67
4921,12.98
4922,12.14
4923,10.99
4924,10.08
4925,10.08
4926,11.3
4927,12.06
4928,11.15
4929,10.31
4930,10.76
4931,10.61
4932,9.08
4933,8.63
4934,11.07
4935,14.73
4936,16.56
4937,16.49
4938,16.41
4939,16.56
4940,16.18
4941,15.8
4942,15.8
4943,16.64
4944,17.48
4945,16.95
4946,15.5
4947,14.58
4948,14.05
4949,13.44
4950,13.51
4951,14.43
4952,15.73
4953,17.48
4954,19.08
4955,18.63
4956,16.49
4957,14.81
4958,13.97
4959,13.59
4960,13.51
4961,13.66
4962,14.12
4963,14.81
4964,14.89
4965,14.2
4966,13.74
4967,13.44
4968,13.36
4969,14.2
4970,15.27
4971,15.5
4972,14.73
4973,13.66
4974,12.82
4975,12.14
4976,11.83
4977,12.14
4978,12.44
4979,11.53
4980,9.54
4981,8.63
4982,9.85
4983,11.68
4984,13.36
4985,14.89
4986,14.96
4987,14.05
4988,13.66
4989,12.9
4990,11.22
4991,10.31
4992,10.76
4993,11.53
4994,12.21
4995,12.98
4996,13.51
4997,13.97
4998,14.35
4999,14.35
5000,14.89
5001,16.72
5002,19.16
5003,21.07
5004,21.6
5005,21.37
5006,21.37
5007,20.76
5008,19.69
5009,19.85
5010,20.99
5011,21.22
5012,20.23
5013,18.93
5014,17.02
5015,14.5
5016,11.6
5017,9.16
5018,8.55
5019,9.31
5020,9.85
5021,9.69
5022,8.85
5023,7.02
5024,5.73
5025,6.95
5026,10
5027,12.37
5028,12.52
5029,10.84
5030,8.78
5031,7.1
5032,6.64
5033,7.79
5034,9.16
5035,9.69
5036,9.54
5037,9.85
5038,10.23
5039,10.46
5040,10.23
5041,9.69
5042,8.78
5043,7.71
5044,7.25
5045,7.86
5046,8.55
5047,7.79
5048,6.34
5049,5.95
5050,6.41
5051,6.56
5052,6.41
5053,5.95
5054,5.34
5055,5.19
5056,5.5
5057,5.19
5058,3.59
5059,2.75
5060,4.58
5061,7.56
5062,8.93
5063,8.47
5064,8.02
5065,8.09
5066,7.94
5067,8.02
5068,8.32
5069,8.63
5070,8.63
5071,8.24
5072,8.02
5073,8.55
5074,9.16
5075,9.54
5076,10.61
5077,12.14
5078,13.44
5079,14.58
5080,14.73
5081,13.36
5082,11.6
5083,10.46
5084,10.61
5085,11.83
5086,13.13
5087,13.28
5088,12.21
5089,10.76
5090,10.08
5091,9.92
5092,10.15
5093,11.37
5094,13.21
5095,14.35
5096,15.27
5097,16.18
5098,16.11
5099,15.11
5100,14.66
5101,16.64
5102,21.53
5103,26.56
5104,28.93
5105,28.55
5106,27.71
5107,27.33
5108,27.63
5109,28.85
5110,30.08
5111,29.39
5112,27.25
5113,25.19
5114,23.74
5115,23.13
5116,23.44
5117,23.89
5118,24.35
5119,25.19
5120,26.18
5121,26.56
5122,26.18
5123,25.57
5124,25.27
5125,26.34
5126,28.4
5127,30.38
5128,31.83
5129,31.91
5130,30.53
5131,29.01
5132,27.63
5133,26.49
5134,26.41
5135,27.63
5136,28.02
5137,26.64
5138,24.89
5139,24.2
5140,23.59
5141,22.67
5142,22.29
5143,23.13
5144,24.43
5145,24.73
5146,23.89
5147,22.44
5148,20.31
5149,18.24
5150,17.63
5151,18.17
5152,18.24
5153,18.09
5154,18.47
5155,18.63
5156,17.63
5157,15.42
5158,12.9
5159,11.83
5160,12.67
5161,13.74
5162,13.97
5163,13.51
5164,12.37
5165,9.69
5166,6.87
5167,6.03
5168,6.56
5169,6.49
5170,5.57
5171,4.66
5172,3.89
5173,2.98
5174,2.06
5175,2.29
5176,4.5
5177,7.63
5178,9.31
5179,9.69
5180,9.77
5181,9.54
5182,9.62
5183,10.92
5184,13.05
5185,14.43
5186,15.27
5187,16.87
5188,18.7
5189,18.93
5190,17.48
5191,16.26
5192,16.41
5193,17.25
5194,18.09
5195,18.78
5196,19.47
5197,19.62
5198,18.78
5199,17.86
5200,16.95
5201,14.96
5202,13.13
5203,12.9
5204,13.36
5205,13.21
5206,11.07
5207,7.86
5208,5.8
5209,5.73
5210,6.49
5211,7.25
5212,7.86
5213,8.24
5214,7.79
5215,6.34
5216,5.27
5217,6.34
5218,9.08
5219,11.15
5220,11.37
5221,10.92
5222,10.46
5223,9.77
5224,9.08
5225,9.16
5226,10.23
5227,11.6
5228,12.82
5229,13.05
5230,11.83
5231,10.23
5232,9.47
5233,9.54
5234,9.85
5235,10
5236,10.08
5237,10.08
5238,9.39
5239,7.86
5240,6.72
5241,7.02
5242,8.4
5243,9.31
5244,9.92
5245,10.53
5246,9.62
5247,7.1
5248,5.04
5249,4.5
5250,5.19
5251,6.49
5252,7.79
5253,8.47
5254,8.85
5255,9.08
5256,8.7
5257,8.02
5258,7.79
5259,8.78
5260,10.92
5261,12.9
5262,13.82
5263,14.12
5264,13.51
5265,12.52
5266,12.67
5267,13.36
5268,13.28
5269,13.28
5270,14.43
5271,16.56
5272,18.09
5273,17.79
5274,16.26
5275,15.11
5276,14.96
5277,15.19
5278,15.42
5279,15.8
5280,16.49
5281,16.79
5282,16.95
5283,17.71
5284,18.32
5285,17.79
5286,16.56
5287,14.96
5288,13.28
5289,12.37
5290,12.21
5291,12.06
5292,11.98
5293,12.21
5294,12.44
5295,12.98
5296,13.44
5297,13.21
5298,12.52
5299,12.52
5300,13.51
5301,14.96
5302,15.8
5303,15.5
5304,14.89
5305,14.89
5306,15.5
5307,15.88
5308,15.5
5309,15.95
5310,18.09
5311,20
5312,21.76
5313,23.05
5314,22.98
5315,21.98
5316,20.92
5317,21.22
5318,23.51
5319,26.18
5320,27.4
5321,27.25
5322,26.79
5323,26.49
5324,25.65
5325,25.27
5326,26.49
5327,28.32
5328,29.31
5329,29.62
5330,29.69
5331,29.54
5332,29.16
5333,28.63
5334,27.94
5335,26.95
5336,25.57
5337,24.35
5338,23.28
5339,21.6
5340,18.7
5341,15.04
5342,12.37
5343,11.6
5344,11.37
5345,9.92
5346,7.86
5347,6.34
5348,4.43
5349,1.37
5350,-0.61
5351,0.15
5352,2.06
5353,2.82
5354,3.36
5355,4.35
5356,4.27
5357,3.21
5358,3.05
5359,4.05
5360,5.34
5361,5.8
5362,5.34
5363,5.19
5364,5.42
5365,5.04
5366,4.58
5367,4.89
5368,5.8
5369,6.56
5370,6.72
5371,6.26
5372,5.5
5373,4.43
5374,3.51
5375,4.2
5376,6.11
5377,8.02
5378,9.85
5379,11.98
5380,14.96
5381,18.17
5382,20.23
5383,21.37
5384,23.28
5385,26.11
5386,28.63
5387,29.85
5388,30
5389,30.53
5390,31.07
5391,30.61
5392,29.85
5393,29.77
5394,30.15
5395,30.31
5396,29.92
5397,28.32
5398,25.95
5399,23.51
5400,20.84
5401,18.4
5402,17.25
5403,17.02
5404,16.87
5405,15.5
5406,12.37
5407,9.69
5408,9.24
5409,9.47
5410,8.93
5411,8.17
5412,7.56
5413,6.72
5414,5.88
5415,5.19
5416,4.5
5417,4.05
5418,4.5
5419,5.42
5420,4.96
5421,3.44
5422,2.37
5423,1.37
5424,0.15
5425,-0.15
5426,0.31
5427,0.84
5428,1.15
5429,2.14
5430,3.97
5431,5.04
5432,4.73
5433,5.11
5434,7.33
5435,9.77
5436,11.45
5437,12.6
5438,13.28
5439,13.21
5440,12.75
5441,12.82
5442,13.74
5443,14.73
5444,15.11
5445,15.34
5446,16.03
5447,16.72
5448,16.87
5449,16.64
5450,15.95
5451,15.8
5452,16.49
5453,17.25
5454,17.94
5455,18.24
5456,16.87
5457,14.2
5458,11.53
5459,10.38
5460,10.99
5461,11.83
5462,12.06
5463,12.06
5464,11.6
5465,10.15
5466,8.78
5467,9.01
5468,10.61
5469,12.06
5470,13.21
5471,14.5
5472,15.11
5473,14.2
5474,12.6
5475,12.44
5476,14.35
5477,16.56
5478,16.87
5479,15.57
5480,14.27
5481,12.52
5482,9.47
5483,6.41
5484,4.81
5485,4.58
5486,4.73
5487,5.04
5488,5.04
5489,4.27
5490,3.66
5491,3.44
5492,3.13
5493,2.6
5494,2.06
5495,2.37
5496,3.28
5497,3.51
5498,2.9
5499,2.37
5500,2.37
5501,2.75
5502,3.36
5503,3.82
5504,3.28
5505,1.37
5506,-0.31
5507,-0.76
5508,-0.69
5509,-0.99
5510,-1.22
5511,0
5512,1.68
5513,2.29
5514,1.6
5515,0.76
5516,1.07
5517,1.83
5518,1.76
5519,1.45
5520,2.06
5521,2.6
5522,1.68
5523,0
5524,-1.37
5525,-1.6
5526,0
5527,2.21
5528,3.36
5529,3.28
5530,3.74
5531,4.58
5532,4.35
5533,4.05
5534,5.11
5535,7.4
5536,9.85
5537,11.91
5538,13.51
5539,13.97
5540,13.21
5541,13.21
5542,15.57
5543,18.85
5544,20.99
5545,21.68
5546,21.45
5547,20.99
5548,19.85
5549,18.17
5550,16.64
5551,16.49
5552,17.4
5553,17.71
5554,16.03
5555,13.21
5556,11.3
5557,10.61
5558,10.23
5559,10.46
5560,11.76
5561,12.9
5562,13.44
5563,13.74
5564,13.51
5565,12.75
5566,12.37
5567,12.37
5568,12.75
5569,13.44
5570,13.51
5571,13.05
5572,12.67
5573,11.45
5574,9.77
5575,9.31
5576,10
5577,10.69
5578,10.53
5579,10.23
5580,10.46
5581,10.46
5582,10.38
5583,11.3
5584,12.98
5585,14.12
5586,14.89
5587,15.27
5588,14.35
5589,13.59
5590,14.2
5591,14.73
5592,14.5
5593,14.35
5594,13.74
5595,11.98
5596,10.23
5597,9.39
5598,8.85
5599,8.47
5600,9.01
5601,10.38
5602,11.22
5603,11.53
5604,12.82
5605,14.73
5606,15.65
5607,15.34
5608,15.27
5609,16.11
5610,17.63
5611,18.85
5612,18.78
5613,18.17
5614,18.32
5615,18.93
5616,18.78
5617,18.78
5618,20
5619,21.45
5620,22.21
5621,22.52
5622,21.83
5623,19.85
5624,18.63
5625,19.39
5626,21.53
5627,23.44
5628,23.89
5629,22.52
5630,20.23
5631,18.17
5632,16.64
5633,15.42
5634,15.42
5635,17.86
5636,21.15
5637,22.44
5638,21.37
5639,19.85
5640,19.47
5641,20.38
5642,21.91
5643,22.9
5644,23.05
5645,22.6
5646,22.21
5647,22.44
5648,22.6
5649,22.37
5650,22.98
5651,24.66
5652,25.73
5653,25.57
5654,25.73
5655,26.49
5656,26.64
5657,25.73
5658,24.5
5659,24.5
5660,25.65
5661,25.95
5662,25.34
5663,24.35
5664,23.21
5665,21.45
5666,19.08
5667,17.63
5668,18.63
5669,21.15
5670,22.98
5671,23.44
5672,22.9
5673,20.99
5674,19.01
5675,19.54
5676,22.75
5677,25.19
5678,25.95
5679,26.64
5680,27.18
5681,26.34
5682,24.89
5683,24.05
5684,24.12
5685,24.2
5686,23.82
5687,22.98
5688,22.29
5689,21.76
5690,20.92
5691,20.76
5692,21.07
5693,20.92
5694,21.15
5695,22.14
5696,22.9
5697,22.98
5698,22.9
5699,22.75
5700,22.37
5701,22.29
5702,23.21
5703,24.43
5704,24.81
5705,24.5
5706,24.89
5707,26.26
5708,27.71
5709,28.78
5710,29.31
5711,29.08
5712,28.7
5713,28.78
5714,28.78
5715,27.4
5716,25.57
5717,24.73
5718,24.2
5719,23.05
5720,21.53
5721,19.62
5722,17.56
5723,15.19
5724,12.52
5725,10.99
5726,12.52
5727,15.95
5728,18.78
5729,19.69
5730,19.08
5731,17.56
5732,15.57
5733,14.81
5734,16.64
5735,20
5736,22.82
5737,24.35
5738,24.66
5739,24.27
5740,24.27
5741,25.42
5742,28.24
5743,32.37
5744,35.34
5745,36.03
5746,35.95
5747,36.18
5748,35.88
5749,35.19
5750,36.56
5751,40.15
5752,42.82
5753,42.52
5754,40.46
5755,38.55
5756,37.56
5757,37.25
5758,36.11
5759,33.44
5760,31.37
5761,31.76
5762,32.44
5763,31.53
5764,29.92
5765,28.4
5766,27.4
5767,27.1
5768,27.63
5769,28.85
5770,30.15
5771,31.76
5772,33.59
5773,35.11
5774,36.34
5775,36.72
5776,36.56
5777,37.25
5778,38.09
5779,38.24
5780,39.16
5781,41.22
5782,43.05
5783,44.89
5784,47.1
5785,48.78
5786,49.92
5787,50.46
5788,50.76
5789,51.6
5790,52.6
5791,53.44
5792,54.96
5793,57.48
5794,60.46
5795,62.82
5796,65.27
5797,68.7
5798,72.29
5799,75.42
5800,78.55
5801,81.3
5802,83.44
5803,84.43
5804,83.74
5805,82.21
5806,80.69
5807,79.47
5808,78.7
5809,78.02
5810,76.41
5811,74.43
5812,72.82
5813,71.53
5814,69.85
5815,67.48
5816,65.27
5817,64.2
5818,64.73
5819,65.88
5820,66.18
5821,64.73
5822,62.06
5823,59.24
5824,57.18
5825,56.26
5826,56.49
5827,57.25
5828,57.94
5829,58.17
5830,57.86
5831,56.79
5832,55.88
5833,56.03
5834,57.63
5835,59.85
5836,61.15
5837,61.98
5838,63.21
5839,64.58
5840,65.42
5841,66.26
5842,67.4
5843,69.39
5844,72.44
5845,75.34
5846,76.49
5847,76.95
5848,77.86
5849,79.85
5850,84.35
5851,90.53
5852,95.27
5853,99.01
5854,102.98
5855,105.42
5856,105.19
5857,104.66
5858,105.19
5859,106.03
5860,106.49
5861,106.41
5862,105.73
5863,104.27
5864,101.68
5865,98.4
5866,94.58
5867,90.76
5868,88.4
5869,87.18
5870,85.57
5871,83.59
5872,81.53
5873,79.01
5874,76.18
5875,74.89
5876,75.8
5877,76.79
5878,76.49
5879,75.34
5880,74.5
5881,74.35
5882,74.2
5883,73.82
5884,73.28
5885,73.36
5886,74.89
5887,76.87
5888,77.79
5889,77.33
5890,76.26
5891,76.34
5892,79.16
5893,83.74
5894,87.63
5895,90
5896,91.3
5897,91.3
5898,90.76
5899,90.99
5900,92.67
5901,95.5
5902,98.17
5903,99.31
5904,98.55
5905,96.87
5906,95.27
5907,94.81
5908,96.34
5909,98.85
5910,100.53
5911,100.38
5912,99.77
5913,99.39
5914,99.08
5915,98.55
5916,97.79
5917,96.56
5918,95.04
5919,93.89
5920,93.28
5921,92.9
5922,91.68
5923,88.17
5924,83.59
5925,80.61
5926,80.08
5927,80.31
5928,79.69
5929,78.55
5930,76.41
5931,73.21
5932,71.22
5933,71.6
5934,72.37
5935,72.37
5936,72.06
5937,71.98
5938,72.21
5939,72.75
5940,72.44
5941,71.45
5942,71.68
5943,73.59
5944,75.19
5945,76.41
5946,78.24
5947,79.77
5948,78.93
5949,76.64
5950,75.65
5951,77.02
5952,79.39
5953,81.07
5954,81.37
5955,80
5956,77.79
5957,76.72
5958,77.1
5959,77.94
5960,77.79
5961,76.72
5962,75.8
5963,75.57
5964,75.34
5965,74.66
5966,73.97
5967,73.89
5968,74.5
5969,75.73
5970,77.33
5971,78.02
5972,76.56
5973,73.13
5974,69.54
5975,66.95
5976,64.89
5977,62.52
5978,59.69
5979,56.26
5980,52.14
5981,47.02
5982,41.15
5983,36.72
5984,35.19
5985,35.73
5986,36.95
5987,38.32
5988,39.16
5989,38.55
5990,37.1
5991,36.95
5992,38.85
5993,41.07
5994,42.37
5995,42.98
5996,43.13
5997,42.21
5998,40.38
5999,39.47
6000,40.76
6001,43.13
6002,44.43
6003,44.5
6004,45.19
6005,46.49
6006,47.71
6007,48.32
6008,48.85
6009,49.92
6010,51.91
6011,54.58
6012,56.18
6013,55.95
6014,55.04
6015,53.74
6016,52.98
6017,54.05
6018,55.57
6019,55.57
6020,54.43
6021,52.75
6022,50.08
6023,47.25
6024,45.42
6025,44.35
6026,43.21
6027,42.29
6028,41.6
6029,39.62
6030,35.11
6031,29.47
6032,24.5
6033,20.08
6034,15.73
6035,12.37
6036,10.92
6037,9.85
6038,6.72
6039,2.29
6040,-1.07
6041,-2.29
6042,-1.6
6043,0.38
6044,2.6
6045,4.12
6046,5.42
6047,6.56
6048,7.25
6049,8.32
6050,10.38
6051,12.82
6052,14.89
6053,16.56
6054,18.55
6055,21.22
6056,23.74
6057,25.34
6058,26.56
6059,28.78
6060,31.76
6061,34.05
6062,34.89
6063,34.58
6064,34.43
6065,35.11
6066,36.79
6067,38.7
6068,39.77
6069,39.39
6070,38.63
6071,38.32
6072,38.32
6073,37.4
6074,35.88
6075,34.81
6076,34.27
6077,33.21
6078,31.53
6079,30
6080,27.94
6081,24.66
6082,21.07
6083,18.47
6084,17.71
6085,18.55
6086,19.31
6087,19.08
6088,18.85
6089,19.16
6090,18.78
6091,17.33
6092,16.64
6093,17.94
6094,18.93
6095,18.24
6096,16.87
6097,16.26
6098,16.26
6099,15.73
6100,14.35
6101,13.44
6102,13.05
6103,12.29
6104,10.46
6105,7.1
6106,2.14
6107,-2.21
6108,-4.05
6109,-3.82
6110,-3.44
6111,-4.27
6112,-5.57
6113,-6.34
6114,-7.02
6115,-7.56
6116,-7.1
6117,-6.03
6118,-5.42
6119,-5.04
6120,-3.59
6121,-1.15
6122,1.6
6123,3.21
6124,3.51
6125,4.2
6126,6.03
6127,7.56
6128,8.85
6129,10.38
6130,11.37
6131,11.22
6132,10
6133,8.24
6134,7.25
6135,7.94
6136,9.47
6137,10.46
6138,10.76
6139,9.39
6140,6.41
6141,4.35
6142,4.43
6143,4.81
6144,3.82
6145,2.21
6146,0.99
6147,-0.15
6148,-1.76
6149,-3.05
6150,-3.44
6151,-3.66
6152,-4.81
6153,-6.72
6154,-9.31
6155,-13.05
6156,-16.87
6157,-19.54
6158,-21.83
6159,-23.74
6160,-24.2
6161,-23.59
6162,-23.59
6163,-25.42
6164,-27.18
6165,-26.56
6166,-24.73
6167,-22.44
6168,-19.62
6169,-16.95
6170,-15.34
6171,-14.5
6172,-13.82
6173,-13.51
6174,-12.67
6175,-10.31
6176,-7.1
6177,-3.89
6178,-1.6
6179,-0.84
6180,-1.07
6181,-1.6
6182,-2.37
6183,-2.29
6184,-0.53
6185,0.76
6186,0.76
6187,1.37
6188,3.28
6189,4.5
6190,3.89
6191,1.53
6192,-1.3
6193,-3.13
6194,-4.12
6195,-5.42
6196,-7.86
6197,-11.83
6198,-16.34
6199,-19.08
6200,-19.69
6201,-19.08
6202,-18.7
6203,-19.16
6204,-20.46
6205,-21.98
6206,-23.05
6207,-24.12
6208,-24.05
6209,-22.6
6210,-21.07
6211,-20.84
6212,-21.68
6213,-22.75
6214,-23.36
6215,-24.05
6216,-25.65
6217,-27.1
6218,-27.4
6219,-27.18
6220,-26.26
6221,-24.89
6222,-24.35
6223,-25.19
6224,-26.11
6225,-25.42
6226,-22.6
6227,-19.54
6228,-18.32
6229,-18.02
6230,-17.63
6231,-17.79
6232,-18.32
6233,-17.33
6234,-15.57
6235,-14.43
6236,-13.97
6237,-14.73
6238,-16.34
6239,-17.79
6240,-18.93
6241,-20.08
6242,-20.46
6243,-19.69
6244,-18.55
6245,-17.63
6246,-18.02
6247,-20.08
6248,-22.82
6249,-24.89
6250,-26.11
6251,-27.02
6252,-28.85
6253,-31.53
6254,-32.29
6255,-31.37
6256,-31.83
6257,-33.97
6258,-35.19
6259,-35.04
6260,-35.11
6261,-35.73
6262,-35.8
6263,-35.42
6264,-35.95
6265,-37.02
6266,-37.48
6267,-37.33
6268,-37.02
6269,-36.95
6270,-37.4
6271,-37.94
6272,-38.47
6273,-39.54
6274,-40.76
6275,-41.15
6276,-40.53
6277,-39.69
6278,-39.24
6279,-39.24
6280,-39.62
6281,-40.99
6282,-42.52
6283,-42.44
6284,-40.84
6285,-38.85
6286,-37.48
6287,-36.79
6288,-36.72
6289,-37.79
6290,-38.02
6291,-35.5
6292,-32.6
6293,-31.68
6294,-31.83
6295,-31.83
6296,-31.3
6297,-30.38
6298,-30.08
6299,-30.92
6300,-32.37
6301,-33.36
6302,-33.36
6303,-33.05
6304,-34.35
6305,-36.79
6306,-38.02
6307,-38.02
6308,-37.86
6309,-36.72
6310,-33.74
6311,-31.91
6312,-33.05
6313,-34.5
6314,-35.34
6315,-36.87
6316,-38.24
6317,-38.32
6318,-37.86
6319,-37.1
6320,-35.88
6321,-36.11
6322,-38.4
6323,-40.69
6324,-41.68
6325,-41.53
6326,-40.15
6327,-38.09
6328,-35.95
6329,-34.5
6330,-34.58
6331,-35.04
6332,-35.04
6333,-34.73
6334,-34.96
6335,-35.65
6336,-36.11
6337,-36.49
6338,-37.4
6339,-38.7
6340,-40.69
6341,-42.29
6342,-40.84
6343,-37.02
6344,-33.51
6345,-32.29
6346,-33.51
6347,-35.57
6348,-37.02
6349,-36.95
6350,-35.34
6351,-34.27
6352,-35.19
6353,-37.18
6354,-37.71
6355,-35.88
6356,-34.2
6357,-33.97
6358,-34.05
6359,-33.28
6360,-32.21
6361,-31.3
6362,-30.69
6363,-30.69
6364,-31.76
6365,-34.35
6366,-36.79
6367,-36.87
6368,-34.89
6369,-32.9
6370,-32.37
6371,-33.44
6372,-35.11
6373,-36.56
6374,-37.48
6375,-37.63
6376,-37.71
6377,-38.47
6378,-39.39
6379,-39.69
6380,-40.08
6381,-41.91
6382,-45.11
6383,-47.71
6384,-47.94
6385,-45.95
6386,-44.12
6387,-44.66
6388,-46.64
6389,-48.63
6390,-48.93
6391,-47.4
6392,-45.57
6393,-44.27
6394,-42.9
6395,-41.91
6396,-42.75
6397,-44.89
6398,-46.95
6399,-48.02
6400,-47.02
6401,-43.97
6402,-41.07
6403,-39.54
6404,-38.55
6405,-37.79
6406,-37.4
6407,-36.87
6408,-35.27
6409,-33.36
6410,-31.68
6411,-30.31
6412,-29.54
6413,-29.92
6414,-30.23
6415,-29.92
6416,-30.15
6417,-30.69
6418,-30.23
6419,-28.7
6420,-27.48
6421,-27.63
6422,-29.85
6423,-32.98
6424,-34.27
6425,-32.9
6426,-31.07
6427,-31.3
6428,-32.44
6429,-32.44
6430,-32.06
6431,-32.6
6432,-34.12
6433,-36.11
6434,-37.63
6435,-37.79
6436,-36.56
6437,-34.43
6438,-32.82
6439,-32.75
6440,-33.44
6441,-34.05
6442,-34.05
6443,-33.13
6444,-31.3
6445,-29.62
6446,-28.78
6447,-29.16
6448,-30.38
6449,-30.46
6450,-29.01
6451,-27.18
6452,-25.11
6453,-22.75
6454,-21.07
6455,-21.45
6456,-23.05
6457,-23.59
6458,-22.82
6459,-21.53
6460,-20.23
6461,-19.08
6462,-18.85
6463,-19.39
6464,-19.39
6465,-18.47
6466,-17.79
6467,-18.32
6468,-18.93
6469,-18.55
6470,-17.86
6471,-17.86
6472,-19.24
6473,-22.06
6474,-24.58
6475,-24.27
6476,-21.53
6477,-19.24
6478,-18.85
6479,-19.01
6480,-18.93
6481,-19.92
6482,-21.53
6483,-21.3
6484,-18.85
6485,-16.87
6486,-17.33
6487,-17.63
6488,-15.8
6489,-14.5
6490,-15.34
6491,-15.95
6492,-14.5
6493,-12.6
6494,-11.45
6495,-10.53
6496,-8.7
6497,-6.26
6498,-4.81
6499,-4.66
6500,-4.66
6501,-3.74
6502,-1.53
6503,1.3
6504,2.75
6505,1.91
6506,0
6507,-1.07
6508,-1.22
6509,-0.99
6510,-0.69
6511,-0.84
6512,-1.91
6513,-3.44
6514,-4.96
6515,-6.72
6516,-8.09
6517,-8.09
6518,-7.1
6519,-7.18
6520,-9.08
6521,-10.92
6522,-11.07
6523,-10.15
6524,-9.31
6525,-8.09
6526,-6.34
6527,-5.34
6528,-5.8
6529,-6.56
6530,-6.87
6531,-7.18
6532,-7.71
6533,-8.17
6534,-7.94
6535,-7.4
6536,-7.25
6537,-7.25
6538,-7.48
6539,-7.71
6540,-6.79
6541,-4.96
6542,-3.59
6543,-2.67
6544,-1.6
6545,-0.84
6546,-0.31
6547,0.08
6548,-0.23
6549,-1.76
6550,-2.82
6551,-2.37
6552,-1.07
6553,0.15
6554,0.23
6555,-0.69
6556,-1.98
6557,-2.9
6558,-2.75
6559,-0.61
6560,3.36
6561,6.72
6562,7.48
6563,7.33
6564,7.63
6565,7.4
6566,5.88
6567,4.89
6568,5.88
6569,8.09
6570,9.77
6571,10.23
6572,9.69
6573,9.16
6574,9.69
6575,11.3
6576,13.05
6577,13.82
6578,13.74
6579,13.05
6580,12.52
6581,12.98
6582,13.74
6583,13.82
6584,13.66
6585,15.04
6586,18.4
6587,20.76
6588,19.69
6589,16.95
6590,15.19
6591,15.5
6592,17.71
6593,20.84
6594,22.67
6595,22.75
6596,22.21
6597,21.37
6598,20.15
6599,18.93
6600,18.17
6601,16.95
6602,15.73
6603,16.95
6604,19.92
6605,21.07
6606,19.69
6607,18.32
6608,18.32
6609,19.31
6610,20.99
6611,22.52
6612,22.75
6613,21.91
6614,21.76
6615,22.06
6616,21.83
6617,21.3
6618,20.69
6619,20.23
6620,20.69
6621,21.37
6622,20.76
6623,18.93
6624,17.71
6625,17.94
6626,18.78
6627,19.47
6628,19.77
6629,20.53
6630,21.53
6631,21.37
6632,20.92
6633,20.99
6634,21.76
6635,22.67
6636,22.9
6637,21.68
6638,20.31
6639,20.08
6640,20.76
6641,21.68
6642,22.29
6643,23.51
6644,25.34
6645,26.03
6646,24.58
6647,23.13
6648,23.74
6649,25.19
6650,25.57
6651,25.27
6652,26.03
6653,28.09
6654,29.54
6655,29.16
6656,27.56
6657,25.95
6658,25.27
6659,25.27
6660,25.11
6661,24.81
6662,24.58
6663,24.12
6664,23.44
6665,22.82
6666,22.21
6667,21.76
6668,22.06
6669,22.67
6670,23.13
6671,23.21
6672,22.29
6673,21.07
6674,20.69
6675,20.99
6676,21.22
6677,22.21
6678,24.35
6679,25.34
6680,23.82
6681,21.76
6682,21.68
6683,22.98
6684,23.28
6685,23.21
6686,24.58
6687,25.95
6688,25.42
6689,24.35
6690,24.2
6691,24.12
6692,23.74
6693,23.89
6694,24.96
6695,26.03
6696,26.56
6697,26.03
6698,24.27
6699,22.75
6700,22.9
6701,24.43
6702,26.72
6703,28.55
6704,28.55
6705,27.33
6706,26.41
6707,25.34
6708,23.97
6709,24.05
6710,25.5
6711,26.41
6712,25.5
6713,22.6
6714,19.62
6715,19.31
6716,21.3
6717,23.36
6718,25.04
6719,26.95
6720,28.17
6721,27.71
6722,26.41
6723,25.73
6724,26.11
6725,27.48
6726,29.16
6727,30.92
6728,32.52
6729,32.98
6730,31.53
6731,29.54
6732,27.94
6733,26.56
6734,26.26
6735,28.02
6736,29.85
6737,29.69
6738,28.78
6739,28.47
6740,27.94
6741,27.02
6742,27.1
6743,27.79
6744,28.24
6745,29.62
6746,31.07
6747,30.08
6748,27.4
6749,25.95
6750,26.26
6751,26.72
6752,26.26
6753,24.96
6754,23.21
6755,21.37
6756,19.54
6757,17.71
6758,16.95
6759,18.24
6760,20.46
6761,21.83
6762,21.76
6763,20.84
6764,19.85
6765,19.47
6766,19.08
6767,17.79
6768,16.34
6769,16.41
6770,17.56
6771,18.7
6772,19.16
6773,18.78
6774,18.63
6775,19.16
6776,20.08
6777,21.15
6778,22.75
6779,24.12
6780,23.74
6781,21.91
6782,20.46
6783,20.53
6784,21.53
6785,21.91
6786,21.91
6787,22.6
6788,23.74
6789,23.89
6790,22.6
6791,21.15
6792,21.83
6793,24.2
6794,26.11
6795,27.02
6796,28.24
6797,29.77
6798,29.77
6799,28.32
6800,27.79
6801,29.24
6802,30.92
6803,31.6
6804,32.29
6805,32.6
6806,31.45
6807,30.46
6808,30.92
6809,31.98
6810,33.28
6811,33.97
6812,32.75
6813,30.15
6814,27.33
6815,25.65
6816,26.11
6817,27.33
6818,27.33
6819,27.4
6820,29.01
6821,30.31
6822,29.69
6823,27.79
6824,26.56
6825,27.86
6826,30.92
6827,33.59
6828,35.19
6829,36.41
6830,37.48
6831,37.86
6832,37.79
6833,37.48
6834,37.63
6835,38.4
6836,38.7
6837,37.94
6838,36.34
6839,33.97
6840,32.44
6841,33.13
6842,34.89
6843,36.18
6844,36.79
6845,37.48
6846,38.63
6847,39.31
6848,38.63
6849,37.48
6850,37.33
6851,38.85
6852,40.99
6853,42.21
6854,41.98
6855,40.31
6856,38.24
6857,37.02
6858,36.72
6859,37.18
6860,38.47
6861,39.39
6862,38.78
6863,37.63
6864,36.87
6865,36.03
6866,35.19
6867,36.11
6868,38.93
6869,41.53
6870,42.67
6871,42.52
6872,41.83
6873,41.15
6874,40.38
6875,39.47
6876,38.7
6877,39.47
6878,41.91
6879,43.59
6880,43.36
6881,42.75
6882,42.75
6883,43.21
6884,44.27
6885,45.27
6886,45.95
6887,46.95
6888,48.02
6889,47.63
6890,45.04
6891,41.91
6892,41.3
6893,43.89
6894,46.64
6895,47.4
6896,46.03
6897,43.89
6898,42.75
6899,42.37
6900,42.75
6901,43.89
6902,44.81
6903,45.34
6904,45.88
6905,45.5
6906,44.12
6907,43.13
6908,44.35
6909,46.56
6910,48.02
6911,49.47
6912,50.99
6913,51.98
6914,52.14
6915,51.45
6916,51.15
6917,52.6
6918,54.27
6919,54.58
6920,54.81
6921,55.73
6922,55.88
6923,54.66
6924,53.51
6925,53.13
6926,53.28
6927,53.97
6928,54.2
6929,53.28
6930,51.68
6931,50.38
6932,50.76
6933,52.9
6934,55.04
6935,56.03
6936,56.64
6937,56.49
6938,54.66
6939,52.67
6940,52.21
6941,52.9
6942,53.21
6943,52.82
6944,53.28
6945,54.96
6946,55.11
6947,52.6
6948,50.38
6949,50.38
6950,51.83
6951,52.9
6952,53.21
6953,52.82
6954,52.14
6955,51.3
6956,51.07
6957,51.6
6958,52.75
6959,54.2
6960,55.27
6961,55.34
6962,56.18
6963,58.17
6964,59.24
6965,58.4
6966,56.79
6967,54.96
6968,53.44
6969,53.28
6970,53.97
6971,54.35
6972,54.2
6973,53.51
6974,52.75
6975,53.66
6976,56.87
6977,60.23
6978,61.83
6979,62.44
6980,63.36
6981,63.51
6982,62.29
6983,60.46
6984,59.08
6985,58.7
6986,59.39
6987,60.84
6988,61.6
6989,60.69
6990,59.85
6991,60.99
6992,62.9
6993,63.74
6994,63.36
6995,62.82
6996,62.06
6997,60.61
6998,58.7
6999,57.1
7000,56.41
7001,56.41
7002,56.64
7003,56.87
7004,55.95
7005,53.82
7006,51.22
7007,49.47
7008,50
7009,52.75
7010,55.65
7011,57.48
7012,58.32
7013,58.55
7014,58.17
7015,57.25
7016,56.26
7017,56.34
7018,57.79
7019,59.01
7020,58.7
7021,57.86
7022,56.87
7023,55.27
7024,53.89
7025,53.82
7026,55.5
7027,58.47
7028,60.61
7029,60.46
7030,58.93
7031,58.02
7032,57.79
7033,57.33
7034,56.34
7035,55.42
7036,55.42
7037,55.57
7038,54.96
7039,52.9
7040,50.53
7041,49.31
7042,49.62
7043,50.31
7044,51.15
7045,52.67
7046,53.82
7047,53.36
7048,50.99
7049,48.47
7050,48.47
7051,50.92
7052,53.21
7053,53.82
7054,53.59
7055,52.9
7056,51.76
7057,50.76
7058,51.3
7059,53.51
7060,56.11
7061,58.17
7062,59.01
7063,58.02
7064,56.41
7065,56.03
7066,56.72
7067,58.24
7068,59.62
7069,59.31
7070,57.71
7071,56.49
7072,56.11
7073,55.65
7074,54.58
7075,53.21
7076,53.28
7077,54.89
7078,55.42
7079,54.58
7080,53.82
7081,52.6
7082,50.08
7083,47.48
7084,45.73
7085,43.97
7086,41.53
7087,40.08
7088,40.84
7089,42.29
7090,41.68
7091,40.53
7092,41.53
7093,43.51
7094,43.51
7095,42.37
7096,42.29
7097,42.9
7098,42.6
7099,41.91
7100,42.37
7101,44.05
7102,46.11
7103,48.17
7104,49.24
7105,49.16
7106,48.4
7107,47.4
7108,47.33
7109,49.24
7110,51.91
7111,53.05
7112,51.91
7113,49.62
7114,47.1
7115,45.34
7116,44.43
7117,43.97
7118,44.2
7119,45.8
7120,47.02
7121,45.57
7122,42.6
7123,40.23
7124,38.93
7125,38.55
7126,38.63
7127,38.24
7128,36.79
7129,35.88
7130,36.26
7131,35.73
7132,33.51
7133,32.44
7134,34.35
7135,37.25
7136,38.17
7137,36.87
7138,35.11
7139,34.35
7140,33.97
7141,33.21
7142,33.05
7143,34.35
7144,35.34
7145,34.96
7146,34.96
7147,35.11
7148,33.44
7149,31.83
7150,32.37
7151,33.51
7152,33.51
7153,33.05
7154,34.05
7155,35.73
7156,34.66
7157,31.15
7158,29.24
7159,30
7160,32.14
7161,33.44
7162,32.67
7163,31.07
7164,30.23
7165,29.85
7166,29.85
7167,30.92
7168,32.14
7169,32.21
7170,30.53
7171,28.32
7172,27.18
7173,27.1
7174,26.79
7175,25.88
7176,25.27
7177,25.95
7178,26.41
7179,25.19
7180,23.89
7181,23.51
7182,23.05
7183,22.75
7184,23.59
7185,25.04
7186,26.18
7187,26.64
7188,26.26
7189,25.42
7190,24.43
7191,23.89
7192,24.81
7193,26.56
7194,27.48
7195,26.56
7196,24.05
7197,21.37
7198,20
7199,20.46
7200,22.6
7201,25.65
7202,27.25
7203,26.41
7204,25.27
7205,24.73
7206,23.97
7207,23.59
7208,24.05
7209,24.2
7210,23.97
7211,23.82
7212,22.67
7213,20.69
7214,18.93
7215,17.71
7216,17.56
7217,17.71
7218,16.79
7219,15.34
7220,14.43
7221,13.28
7222,11.37
7223,9.08
7224,7.02
7225,5.5
7226,4.43
7227,3.59
7228,3.21
7229,3.51
7230,3.13
7231,1.37
7232,-0.61
7233,-1.6
7234,-0.92
7235,0.23
7236,0.38
7237,0
7238,-0.31
7239,-1.37
7240,-2.29
7241,-1.68
7242,-0.31
7243,0.61
7244,1.53
7245,2.29
7246,2.82
7247,3.21
7248,3.74
7249,4.43
7250,4.96
7251,5.73
7252,6.95
7253,7.79
7254,7.33
7255,5.73
7256,3.97
7257,2.9
7258,1.91
7259,1.15
7260,0.92
7261,0.92
7262,0.53
7263,-0.23
7264,-1.07
7265,-1.15
7266,-0.99
7267,-0.84
7268,-0.31
7269,0.84
7270,2.37
7271,3.13
7272,2.37
7273,0.46
7274,-1.6
7275,-1.98
7276,0.08
7277,2.37
7278,2.52
7279,1.53
7280,0.31
7281,-0.76
7282,-0.84
7283,0
7284,0.69
7285,0.61
7286,0.76
7287,1.22
7288,0.76
7289,-1.22
7290,-3.74
7291,-5.11
7292,-5.5
7293,-4.96
7294,-2.9
7295,-0.69
7296,-0.31
7297,-1.6
7298,-2.9
7299,-3.21
7300,-3.05
7301,-2.06
7302,0.38
7303,3.05
7304,4.5
7305,3.82
7306,1.07
7307,-1.45
7308,-1.68
7309,-0.15
7310,0.99
7311,0.69
7312,-1.45
7313,-4.96
7314,-7.71
7315,-8.09
7316,-6.87
7317,-6.26
7318,-6.56
7319,-6.11
7320,-5.04
7321,-5.04
7322,-5.8
7323,-6.11
7324,-6.34
7325,-7.71
7326,-9.01
7327,-8.78
7328,-7.79
7329,-7.86
7330,-9.77
7331,-12.82
7332,-14.66
7333,-15.04
7334,-16.18
7335,-17.1
7336,-15.73
7337,-13.66
7338,-12.75
7339,-12.98
7340,-13.28
7341,-13.05
7342,-11.83
7343,-9.54
7344,-7.63
7345,-6.87
7346,-7.4
7347,-9.47
7348,-11.6
7349,-10.84
7350,-7.94
7351,-5.5
7352,-4.58
7353,-5.11
7354,-6.18
7355,-6.49
7356,-6.49
7357,-6.87
7358,-6.95
7359,-7.25
7360,-8.02
7361,-8.09
7362,-8.24
7363,-9.77
7364,-11.6
7365,-12.14
7366,-11.45
7367,-10.31
7368,-8.7
7369,-6.41
7370,-5.04
7371,-5.73
7372,-6.72
7373,-7.02
7374,-8.09
7375,-9.92
7376,-10.38
7377,-8.78
7378,-7.86
7379,-8.78
7380,-9.01
7381,-7.71
7382,-7.18
7383,-8.24
7384,-9.62
7385,-10.31
7386,-10.38
7387,-10.46
7388,-10.69
7389,-10.99
7390,-11.83
7391,-13.66
7392,-15.65
7393,-16.49
7394,-15.8
7395,-14.58
7396,-14.2
7397,-15.73
7398,-17.94
7399,-18.47
7400,-16.64
7401,-13.97
7402,-11.83
7403,-10.61
7404,-9.62
7405,-9.16
7406,-10.23
7407,-11.68
7408,-11.91
7409,-10
7410,-7.02
7411,-5.73
7412,-7.18
7413,-8.85
7414,-9.62
7415,-11.22
7416,-13.13
7417,-13.28
7418,-11.76
7419,-10.08
7420,-8.93
7421,-8.02
7422,-8.4
7423,-10.46
7424,-12.6
7425,-12.75
7426,-10.84
7427,-8.85
7428,-8.7
7429,-10.53
7430,-13.13
7431,-15.19
7432,-16.11
7433,-15.19
7434,-12.9
7435,-10
7436,-7.4
7437,-6.03
7438,-6.03
7439,-5.8
7440,-4.73
7441,-3.89
7442,-3.36
7443,-2.82
7444,-2.75
7445,-2.67
7446,-2.37
7447,-2.67
7448,-3.51
7449,-4.81
7450,-5.88
7451,-5.65
7452,-3.89
7453,-2.37
7454,-2.37
7455,-3.44
7456,-4.2
7457,-3.89
7458,-2.37
7459,0
7460,1.76
7461,2.52
7462,2.67
7463,2.82
7464,2.6
7465,0.92
7466,-1.68
7467,-2.82
7468,-1.07
7469,0.53
7470,-0.61
7471,-2.9
7472,-4.35
7473,-5.19
7474,-4.89
7475,-3.21
7476,-1.45
7477,-0.69
7478,-0.99
7479,-1.15
7480,-0.53
7481,-0.53
7482,-2.21
7483,-3.74
7484,-3.05
7485,-1.83
7486,-2.14
7487,-4.05
7488,-5.88
7489,-6.49
7490,-7.02
7491,-8.02
7492,-8.47
7493,-7.86
7494,-6.49
7495,-5.11
7496,-4.66
7497,-5.11
7498,-5.5
7499,-4.89
7500,-3.51
7501,-2.44
7502,-1.45
7503,-0.46
7504,-0.15
7505,-0.99
7506,-2.67
7507,-3.59
7508,-3.28
7509,-2.6
7510,-1.76
7511,-1.07
7512,-1.37
7513,-2.6
7514,-3.59
7515,-4.05
7516,-3.89
7517,-2.75
7518,-0.69
7519,0.38
7520,0.46
7521,1.22
7522,2.82
7523,3.82
7524,4.73
7525,5.65
7526,5.8
7527,5.95
7528,6.72
7529,6.11
7530,3.89
7531,2.52
7532,2.21
7533,2.14
7534,3.13
7535,4.96
7536,5.5
7537,4.89
7538,4.73
7539,5.65
7540,6.34
7541,6.18
7542,5.95
7543,5.8
7544,5.57
7545,6.18
7546,7.1
7547,6.26
7548,4.12
7549,3.44
7550,4.58
7551,5.95
7552,6.87
7553,7.18
7554,6.49
7555,4.5
7556,2.52
7557,2.6
7558,4.05
7559,5.04
7560,4.81
7561,4.43
7562,4.43
7563,4.27
7564,3.21
7565,1.6
7566,1.07
7567,2.52
7568,4.05
7569,4.35
7570,4.66
7571,4.96
7572,3.36
7573,0.84
7574,-0.69
7575,-1.3
7576,-0.38
7577,1.76
7578,3.97
7579,5.5
7580,6.18
7581,5.11
7582,3.21
7583,3.59
7584,6.34
7585,8.32
7586,9.31
7587,10.31
7588,9.69
7589,8.4
7590,8.63
7591,9.31
7592,10
7593,11.91
7594,13.59
7595,13.51
7596,12.98
7597,12.29
7598,11.37
7599,11.45
7600,12.52
7601,13.21
7602,13.13
7603,13.44
7604,14.66
7605,15.5
7606,14.43
7607,12.75
7608,12.75
7609,14.35
7610,15.95
7611,16.64
7612,16.56
7613,16.26
7614,15.8
7615,14.5
7616,12.75
7617,12.14
7618,13.44
7619,15.5
7620,16.34
7621,15.34
7622,14.12
7623,13.74
7624,13.97
7625,15.34
7626,17.94
7627,19.92
7628,20.46
7629,20.76
7630,21.45
7631,21.6
7632,20.84
7633,20.31
7634,20.69
7635,21.6
7636,22.29
7637,22.6
7638,22.75
7639,22.29
7640,21.53
7641,21.22
7642,22.06
7643,23.89
7644,25.57
7645,26.18
7646,25.95
7647,25.19
7648,23.97
7649,23.21
7650,23.97
7651,25.5
7652,26.34
7653,26.11
7654,25.04
7655,23.51
7656,21.76
7657,19.92
7658,18.78
7659,18.47
7660,17.86
7661,16.87
7662,16.49
7663,16.87
7664,16.79
7665,16.18
7666,15.95
7667,16.18
7668,17.02
7669,18.24
7670,18.7
7671,18.17
7672,17.56
7673,16.64
7674,15.11
7675,14.27
7676,14.73
7677,15.95
7678,17.1
7679,17.79
7680,18.47
7681,19.31
7682,19.77
7683,20.15
7684,21.22
7685,22.29
7686,22.82
7687,23.66
7688,24.73
7689,24.5
7690,22.44
7691,20.23
7692,19.85
7693,22.14
7694,25.42
7695,27.4
7696,26.87
7697,24.81
7698,23.36
7699,23.13
7700,23.97
7701,26.34
7702,28.32
7703,28.78
7704,28.63
7705,27.63
7706,25.27
7707,22.9
7708,21.68
7709,21.6
7710,22.21
7711,22.21
7712,21.3
7713,20.69
7714,20.92
7715,21.07
7716,20.99
7717,21.98
7718,24.27
7719,26.56
7720,28.47
7721,29.39
7722,28.63
7723,26.11
7724,22.98
7725,21.37
7726,22.21
7727,23.36
7728,23.21
7729,21.83
7730,19.77
7731,17.4
7732,16.18
7733,16.64
7734,18.24
7735,19.77
7736,20.61
7737,21.22
7738,22.52
7739,24.12
7740,25.19
7741,25.65
7742,26.18
7743,26.95
7744,27.94
7745,28.78
7746,29.16
7747,28.85
7748,27.4
7749,25.19
7750,24.12
7751,24.66
7752,25.11
7753,24.35
7754,23.05
7755,22.29
7756,21.83
7757,21.15
7758,20.46
7759,20.23
7760,20.69
7761,21.07
7762,21.22
7763,21.07
7764,19.92
7765,18.09
7766,17.02
7767,17.33
7768,18.17
7769,19.08
7770,20.08
7771,20.15
7772,19.24
7773,19.08
7774,19.39
7775,19.47
7776,19.54
7777,19.69
7778,20
7779,20.61
7780,21.07
7781,20.69
7782,19.92
7783,20.23
7784,21.45
7785,22.37
7786,22.6
7787,22.44
7788,21.91
7789,21.68
7790,22.52
7791,23.59
7792,23.97
7793,24.2
7794,24.96
7795,26.49
7796,27.94
7797,28.4
7798,28.02
7799,27.4
7800,27.02
7801,28.09
7802,30.53
7803,31.68
7804,30.61
7805,28.32
7806,26.11
7807,24.73
7808,25.19
7809,26.41
7810,26.49
7811,24.81
7812,22.75
7813,21.37
7814,20.08
7815,18.78
7816,18.55
7817,18.85
7818,18.24
7819,17.71
7820,18.17
7821,18.09
7822,16.72
7823,15.42
7824,14.89
7825,14.73
7826,15.19
7827,15.57
7828,15.34
7829,15.11
7830,15.11
7831,15.11
7832,14.89
7833,14.96
7834,15.65
7835,16.03
7836,15.5
7837,14.2
7838,12.44
7839,10.08
7840,7.48
7841,5.34
7842,4.96
7843,6.72
7844,8.63
7845,9.16
7846,8.17
7847,6.49
7848,5.27
7849,4.96
7850,5.73
7851,7.94
7852,10.61
7853,11.45
7854,9.85
7855,7.48
7856,6.56
7857,8.02
7858,10.84
7859,13.44
7860,14.12
7861,13.28
7862,13.05
7863,13.89
7864,15.42
7865,17.02
7866,17.79
7867,17.1
7868,16.11
7869,15.95
7870,16.26
7871,15.57
7872,13.44
7873,11.68
7874,11.45
7875,11.83
7876,12.21
7877,12.6
7878,13.13
7879,12.98
7880,11.83
7881,9.92
7882,8.02
7883,6.79
7884,6.41
7885,6.72
7886,6.79
7887,6.11
7888,4.5
7889,2.52
7890,1.15
7891,1.3
7892,2.9
7893,5.04
7894,6.56
7895,6.79
7896,6.11
7897,5.34
7898,3.89
7899,1.68
7900,0.76
7901,2.6
7902,5.19
7903,6.56
7904,5.34
7905,1.68
7906,-1.6
7907,-2.52
7908,-1.91
7909,-0.99
7910,0.46
7911,1.3
7912,0.15
7913,-1.45
7914,-3.28
7915,-5.11
7916,-5.8
7917,-5.65
7918,-5.19
7919,-4.66
7920,-4.81
7921,-6.18
7922,-8.7
7923,-11.07
7924,-11.83
7925,-10.69
7926,-8.63
7927,-6.34
7928,-4.96
7929,-5.73
7930,-8.09
7931,-9.85
7932,-9.31
7933,-6.49
7934,-2.75
7935,0
7936,1.15
7937,0.84
7938,0.23
7939,0.46
7940,1.68
7941,3.74
7942,6.41
7943,9.08
7944,10.84
7945,10.46
7946,9.16
7947,7.86
7948,5.73
7949,3.44
7950,2.67
7951,2.98
7952,2.98
7953,2.98
7954,3.59
7955,3.13
7956,0.76
7957,-1.45
7958,-2.82
7959,-3.51
7960,-2.75
7961,-0.46
7962,1.07
7963,0.08
7964,-3.13
7965,-6.56
7966,-8.7
7967,-9.54
7968,-9.01
7969,-7.79
7970,-7.63
7971,-9.16
7972,-11.53
7973,-13.66
7974,-15.04
7975,-15.73
7976,-15.11
7977,-13.66
7978,-12.37
7979,-10.69
7980,-9.47
7981,-10.61
7982,-12.44
7983,-12.06
7984,-9.92
7985,-8.7
7986,-8.78
7987,-9.01
7988,-10.23
7989,-12.75
7990,-14.81
7991,-15.88
7992,-16.03
7993,-15.73
7994,-15.8
7995,-16.72
7996,-17.4
7997,-17.02
7998,-16.87
7999,-18.02
8000,-18.24
8001,-16.26
8002,-13.59
8003,-12.21
8004,-12.37
8005,-12.82
8006,-12.6
8007,-11.98
8008,-11.22
8009,-10.53
8010,-9.92
8011,-9.62
8012,-10.46
8013,-12.44
8014,-14.66
8015,-16.26
8016,-16.64
8017,-15.8
8018,-15.27
8019,-16.11
8020,-17.25
8021,-18.47
8022,-20.31
8023,-22.82
8024,-24.66
8025,-24.43
8026,-22.9
8027,-21.83
8028,-21.76
8029,-22.14
8030,-22.44
8031,-22.44
8032,-21.83
8033,-21.15
8034,-21.76
8035,-22.98
8036,-23.05
8037,-22.29
8038,-21.83
8039,-22.44
8040,-23.97
8041,-25.19
8042,-25.42
8043,-24.35
8044,-23.36
8045,-23.74
8046,-24.89
8047,-26.11
8048,-28.24
8049,-30.76
8050,-31.68
8051,-30.69
8052,-29.77
8053,-30.84
8054,-33.82
8055,-36.87
8056,-38.55
8057,-38.24
8058,-36.03
8059,-33.21
8060,-31.45
8061,-30.92
8062,-30.53
8063,-29.39
8064,-27.86
8065,-27.94
8066,-29.31
8067,-29.16
8068,-27.25
8069,-26.03
8070,-26.49
8071,-26.95
8072,-27.79
8073,-29.85
8074,-32.52
8075,-34.35
8076,-34.73
8077,-34.12
8078,-33.13
8079,-32.29
8080,-32.98
8081,-34.73
8082,-35.27
8083,-33.82
8084,-31.45
8085,-29.47
8086,-29.47
8087,-31.53
8088,-34.12
8089,-36.34
8090,-37.4
8091,-37.1
8092,-35.88
8093,-33.89
8094,-31.68
8095,-29.69
8096,-28.78
8097,-30.31
8098,-33.97
8099,-36.72
8100,-36.03
8101,-33.51
8102,-32.6
8103,-33.89
8104,-35.42
8105,-36.49
8106,-37.56
8107,-38.7
8108,-39.08
8109,-38.4
8110,-37.94
8111,-38.85
8112,-40.08
8113,-40.23
8114,-40.31
8115,-41.45
8116,-41.98
8117,-41.07
8118,-41.22
8119,-43.59
8120,-45.5
8121,-45.8
8122,-46.49
8123,-48.7
8124,-51.37
8125,-51.76
8126,-49.54
8127,-47.86
8128,-48.02
8129,-49.08
8130,-50.15
8131,-50.08
8132,-49.39
8133,-49.47
8134,-49.85
8135,-49.39
8136,-48.17
8137,-47.71
8138,-49.69
8139,-53.28
8140,-56.34
8141,-56.87
8142,-54.58
8143,-51.53
8144,-49.77
8145,-49.47
8146,-49.77
8147,-50.53
8148,-52.14
8149,-54.58
8150,-56.18
8151,-55.27
8152,-53.44
8153,-53.89
8154,-55.73
8155,-57.4
8156,-59.54
8157,-60.76
8158,-59.85
8159,-59.24
8160,-59.47
8161,-58.47
8162,-57.25
8163,-57.4
8164,-58.32
8165,-58.93
8166,-59.69
8167,-60.53
8168,-61.15
8169,-62.37
8170,-64.66
8171,-66.95
8172,-68.02
8173,-68.55
8174,-68.7
8175,-68.02
8176,-67.25
8177,-66.34
8178,-64.2
8179,-61.98
8180,-61.6
8181,-62.9
8182,-63.51
8183,-62.67
8184,-60.99
8185,-59.47
8186,-59.08
8187,-60.08
8188,-60.76
8189,-60.61
8190,-60.99
8191,-62.14
8192,-62.37
8193,-61.6
8194,-61.22
8195,-61.45
8196,-62.67
8197,-64.81
8198,-66.87
8199,-68.17
8200,-68.4
8201,-67.56
8202,-66.64
8203,-66.41
8204,-66.26
8205,-66.64
8206,-68.4
8207,-70.38
8208,-71.07
8209,-69.85
8210,-68.63
8211,-68.32
8212,-67.71
8213,-66.95
8214,-67.33
8215,-68.24
8216,-68.55
8217,-67.71
8218,-66.18
8219,-64.96
8220,-64.5
8221,-65.04
8222,-66.87
8223,-68.63
8224,-69.47
8225,-70.53
8226,-71.37
8227,-70.53
8228,-68.7
8229,-67.18
8230,-66.87
8231,-68.09
8232,-69.47
8233,-68.17
8234,-64.58
8235,-61.68
8236,-61.07
8237,-62.29
8238,-64.27
8239,-65.5
8240,-65.8
8241,-65.5
8242,-64.89
8243,-64.81
8244,-65.57
8245,-66.41
8246,-67.1
8247,-68.47
8248,-71.22
8249,-73.59
8250,-73.74
8251,-72.82
8252,-72.6
8253,-73.13
8254,-74.35
8255,-76.34
8256,-78.47
8257,-79.47
8258,-79.08
8259,-78.78
8260,-79.16
8261,-78.85
8262,-78.63
8263,-80.46
8264,-83.59
8265,-86.18
8266,-87.56
8267,-87.1
8268,-85.5
8269,-84.05
8270,-84.12
8271,-86.03
8272,-88.02
8273,-88.09
8274,-86.95
8275,-85.8
8276,-84.43
8277,-82.44
8278,-81.37
8279,-82.6
8280,-84.27
8281,-84.12
8282,-83.13
8283,-83.13
8284,-83.74
8285,-83.89
8286,-83.82
8287,-84.27
8288,-85.57
8289,-87.1
8290,-88.7
8291,-89.77
8292,-90.38
8293,-91.07
8294,-91.3
8295,-90.46
8296,-89.39
8297,-88.85
8298,-88.63
8299,-88.17
8300,-87.86
8301,-87.71
8302,-87.18
8303,-85.57
8304,-83.13
8305,-82.37
8306,-84.96
8307,-87.71
8308,-87.4
8309,-85.11
8310,-83.51
8311,-83.36
8312,-83.74
8313,-84.35
8314,-85.42
8315,-86.03
8316,-85.57
8317,-84.35
8318,-82.29
8319,-80.23
8320,-80.15
8321,-81.68
8322,-83.28
8323,-84.58
8324,-86.18
8325,-86.95
8326,-85.65
8327,-83.74
8328,-82.52
8329,-82.29
8330,-82.75
8331,-83.28
8332,-83.89
8333,-84.81
8334,-85.65
8335,-86.26
8336,-86.49
8337,-85.95
8338,-85.95
8339,-87.71
8340,-90.38
8341,-92.21
8342,-91.76
8343,-90.76
8344,-90.61
8345,-90.53
8346,-90.76
8347,-92.98
8348,-95.95
8349,-96.87
8350,-95.5
8351,-93.82
8352,-92.98
8353,-93.28
8354,-94.58
8355,-96.41
8356,-98.32
8357,-99.31
8358,-99.16
8359,-98.24
8360,-97.1
8361,-96.56
8362,-97.02
8363,-97.71
8364,-97.56
8365,-96.95
8366,-97.18
8367,-96.95
8368,-94.43
8369,-91.37
8370,-89.69
8371,-89.69
8372,-91.37
8373,-93.05
8374,-93.82
8375,-94.35
8376,-94.66
8377,-94.12
8378,-93.05
8379,-92.14
8380,-91.68
8381,-91.53
8382,-92.37
8383,-93.89
8384,-94.05
8385,-92.44
8386,-91.15
8387,-91.3
8388,-92.9
8389,-95.34
8390,-97.48
8391,-98.78
8392,-100
8393,-101.07
8394,-100.53
8395,-98.93
8396,-98.78
8397,-99.54
8398,-99.39
8399,-99.31
8400,-99.77
8401,-99.16
8402,-97.86
8403,-97.63
8404,-98.09
8405,-98.09
8406,-97.4
8407,-96.41
8408,-95.73
8409,-95.65
8410,-96.26
8411,-97.56
8412,-99.01
8413,-99.31
8414,-98.93
8415,-99.01
8416,-99.47
8417,-98.85
8418,-97.33
8419,-97.02
8420,-97.63
8421,-97.4
8422,-96.79
8423,-96.56
8424,-95.8
8425,-94.27
8426,-92.75
8427,-92.06
8428,-91.68
8429,-91.53
8430,-92.67
8431,-94.73
8432,-95.95
8433,-95.65
8434,-95.11
8435,-95.34
8436,-96.11
8437,-96.72
8438,-96.64
8439,-96.41
8440,-96.64
8441,-96.56
8442,-95.42
8443,-93.28
8444,-91.22
8445,-90
8446,-89.69
8447,-89.54
8448,-88.93
8449,-87.79
8450,-86.49
8451,-84.73
8452,-82.52
8453,-81.07
8454,-80.76
8455,-81.22
8456,-82.37
8457,-84.2
8458,-86.03
8459,-87.4
8460,-88.24
8461,-88.4
8462,-88.24
8463,-88.78
8464,-90.61
8465,-93.13
8466,-93.89
8467,-91.83
8468,-89.31
8469,-87.86
8470,-87.48
8471,-88.17
8472,-89.54
8473,-90.61
8474,-91.45
8475,-92.37
8476,-92.6
8477,-92.52
8478,-92.44
8479,-92.9
8480,-94.05
8481,-95.42
8482,-96.34
8483,-95.88
8484,-94.05
8485,-92.44
8486,-91.53
8487,-90.92
8488,-91.45
8489,-92.52
8490,-92.37
8491,-91.53
8492,-91.45
8493,-91.53
8494,-90.61
8495,-90.31
8496,-91.76
8497,-93.89
8498,-95.27
8499,-95.42
8500,-94.73
8501,-93.66
8502,-93.66
8503,-95.04
8504,-96.56
8505,-97.33
8506,-98.02
8507,-98.47
8508,-97.94
8509,-96.79
8510,-95.27
8511,-92.67
8512,-89.54
8513,-88.32
8514,-89.47
8515,-91.45
8516,-91.83
8517,-89.54
8518,-86.56
8519,-85.11
8520,-84.35
8521,-83.89
8522,-84.81
8523,-86.11
8524,-86.87
8525,-87.63
8526,-87.79
8527,-86.49
8528,-84.12
8529,-82.44
8530,-82.14
8531,-82.82
8532,-82.98
8533,-82.29
8534,-81.45
8535,-80.99
8536,-80.61
8537,-80.69
8538,-80.99
8539,-80.76
8540,-81.22
8541,-82.98
8542,-84.2
8543,-83.36
8544,-80.99
8545,-78.78
8546,-78.24
8547,-79.62
8548,-81.07
8549,-80.46
8550,-78.4
8551,-76.64
8552,-75.95
8553,-76.03
8554,-77.02
8555,-78.63
8556,-79.39
8557,-78.4
8558,-76.95
8559,-75.95
8560,-75.88
8561,-76.03
8562,-75.57
8563,-74.43
8564,-73.59
8565,-73.13
8566,-72.82
8567,-72.75
8568,-72.06
8569,-70.61
8570,-69.08
8571,-68.09
8572,-68.32
8573,-69.77
8574,-70.76
8575,-70.08
8576,-68.4
8577,-66.87
8578,-66.49
8579,-67.48
8580,-69.16
8581,-70.53
8582,-71.37
8583,-71.3
8584,-69.92
8585,-68.63
8586,-68.78
8587,-69.47
8588,-69.69
8589,-70.31
8590,-71.37
8591,-70.92
8592,-69.01
8593,-67.86
8594,-67.71
8595,-67.02
8596,-66.87
8597,-68.7
8598,-70.84
8599,-71.07
8600,-69.77
8601,-68.02
8602,-66.49
8603,-66.87
8604,-69.01
8605,-71.37
8606,-73.21
8607,-74.5
8608,-74.96
8609,-74.43
8610,-73.51
8611,-72.67
8612,-71.6
8613,-71.3
8614,-73.44
8615,-76.87
8616,-78.32
8617,-76.64
8618,-73.97
8619,-72.06
8620,-70.84
8621,-70.61
8622,-72.67
8623,-75.73
8624,-76.34
8625,-74.73
8626,-73.74
8627,-73.21
8628,-72.21
8629,-71.45
8630,-71.91
8631,-73.28
8632,-74.35
8633,-73.97
8634,-72.9
8635,-73.28
8636,-74.58
8637,-74.43
8638,-73.44
8639,-73.44
8640,-74.5
8641,-75.57
8642,-75.65
8643,-74.27
8644,-72.14
8645,-70.69
8646,-70.69
8647,-71.91
8648,-73.59
8649,-74.81
8650,-75.04
8651,-73.89
8652,-71.98
8653,-70
8654,-69.16
8655,-70.08
8656,-71.91
8657,-71.91
8658,-68.85
8659,-65.19
8660,-63.05
8661,-61.91
8662,-60.84
8663,-60.31
8664,-60
8665,-59.85
8666,-59.24
8667,-57.1
8668,-54.58
8669,-54.35
8670,-55.42
8671,-55.27
8672,-54.89
8673,-56.11
8674,-57.02
8675,-55.57
8676,-53.36
8677,-52.06
8678,-51.76
8679,-52.9
8680,-55.04
8681,-55.27
8682,-53.97
8683,-54.05
8684,-54.73
8685,-53.97
8686,-52.9
8687,-52.98
8688,-53.97
8689,-55.5
8690,-57.18
8691,-58.02
8692,-57.86
8693,-58.17
8694,-59.16
8695,-59.62
8696,-60.53
8697,-61.98
8698,-62.29
8699,-61.98
8700,-62.37
8701,-62.21
8702,-61.15
8703,-60.46
8704,-60.38
8705,-60.46
8706,-60.99
8707,-61.68
8708,-61.53
8709,-59.85
8710,-57.63
8711,-56.18
8712,-55.5
8713,-54.89
8714,-55.19
8715,-57.48
8716,-59.31
8717,-58.02
8718,-55.27
8719,-53.21
8720,-51.98
8721,-51.15
8722,-50.69
8723,-50.15
8724,-49.08
8725,-47.56
8726,-46.26
8727,-45.88
8728,-46.56
8729,-46.64
8730,-44.96
8731,-43.13
8732,-42.82
8733,-42.44
8734,-41.45
8735,-41.22
8736,-42.06
8737,-42.67
8738,-43.36
8739,-44.73
8740,-45.11
8741,-43.89
8742,-43.21
8743,-43.13
8744,-41.37
8745,-39.47
8746,-39.39
8747,-40.61
8748,-41.76
8749,-41.83
8750,-40.61
8751,-39.54
8752,-39.62
8753,-40.23
8754,-40.61
8755,-41.3
8756,-42.14
8757,-42.37
8758,-42.9
8759,-43.66
8760,-43.13
8761,-41.83
8762,-41.15
8763,-42.06
8764,-43.74
8765,-44.35
8766,-43.59
8767,-42.44
8768,-40.46
8769,-37.94
8770,-36.26
8771,-35.95
8772,-36.41
8773,-37.4
8774,-39.16
8775,-40.61
8776,-40.31
8777,-39.16
8778,-38.7
8779,-38.63
8780,-39.24
8781,-40.53
8782,-41.83
8783,-42.52
8784,-41.83
8785,-39.92
8786,-38.7
8787,-39.39
8788,-41.15
8789,-43.36
8790,-45.34
8791,-46.03
8792,-44.73
8793,-42.82
8794,-41.6
8795,-41.22
8796,-41.83
8797,-42.98
8798,-43.97
8799,-44.73
8800,-44.35
8801,-42.06
8802,-40
8803,-39.77
8804,-40.23
8805,-40.15
8806,-40.08
8807,-40.38
8808,-40
8809,-38.78
8810,-37.56
8811,-36.72
8812,-36.41
8813,-36.72
8814,-37.86
8815,-39.24
8816,-39.08
8817,-37.25
8818,-34.43
8819,-31.76
8820,-30.53
8821,-30.38
8822,-31.07
8823,-32.67
8824,-34.05
8825,-33.66
8826,-31.6
8827,-29.62
8828,-29.54
8829,-30.69
8830,-31.3
8831,-31.3
8832,-31.07
8833,-31.07
8834,-31.45
8835,-32.06
8836,-32.37
8837,-32.21
8838,-31.53
8839,-30.53
8840,-29.39
8841,-28.17
8842,-27.4
8843,-27.56
8844,-28.85
8845,-30.53
8846,-31.53
8847,-31.45
8848,-31.53
8849,-32.44
8850,-32.82
8851,-31.53
8852,-30.15
8853,-30
8854,-30.38
8855,-30.69
8856,-30.92
8857,-31.3
8858,-31.3
8859,-29.92
8860,-27.63
8861,-25.57
8862,-24.27
8863,-24.27
8864,-24.96
8865,-24.66
8866,-23.59
8867,-22.82
8868,-21.53
8869,-19.47
8870,-18.4
8871,-19.01
8872,-20.38
8873,-21.68
8874,-22.44
8875,-22.6
8876,-22.52
8877,-23.05
8878,-23.21
8879,-22.52
8880,-23.13
8881,-25.73
8882,-27.71
8883,-27.86
8884,-27.48
8885,-26.95
8886,-26.41
8887,-25.95
8888,-25.73
8889,-26.26
8890,-26.95
8891,-26.03
8892,-23.59
8893,-21.53
8894,-21.07
8895,-21.98
8896,-22.82
8897,-23.21
8898,-23.74
8899,-24.43
8900,-25.19
8901,-25.5
8902,-24.73
8903,-23.97
8904,-24.2
8905,-24.66
8906,-24.73
8907,-25.42
8908,-26.26
8909,-25.73
8910,-24.66
8911,-24.81
8912,-26.03
8913,-26.64
8914,-26.49
8915,-26.49
8916,-26.79
8917,-27.18
8918,-26.87
8919,-25.95
8920,-25.34
8921,-25.34
8922,-25.8
8923,-26.79
8924,-26.79
8925,-25.5
8926,-24.2
8927,-22.82
8928,-21.53
8929,-21.3
8930,-21.45
8931,-21.22
8932,-21.45
8933,-22.37
8934,-22.37
8935,-20.46
8936,-17.1
8937,-13.59
8938,-11.45
8939,-11.83
8940,-13.89
8941,-15.57
8942,-15.5
8943,-14.35
8944,-14.05
8945,-14.27
8946,-12.75
8947,-10.69
8948,-11.45
8949,-14.2
8950,-15.11
8951,-12.9
8952,-9.47
8953,-7.02
8954,-6.26
8955,-7.02
8956,-7.79
8957,-7.1
8958,-5.27
8959,-3.66
8960,-2.98
8961,-2.82
8962,-3.28
8963,-3.66
8964,-3.28
8965,-2.29
8966,-1.3
8967,-1.22
8968,-1.91
8969,-1.68
8970,-0.76
8971,-0.76
8972,-2.37
8973,-4.12
8974,-5.11
8975,-4.81
8976,-3.44
8977,-2.9
8978,-3.97
8979,-5.42
8980,-6.03
8981,-5.73
8982,-5.04
8983,-5.04
8984,-6.56
8985,-8.55
8986,-8.47
8987,-7.4
8988,-8.7
8989,-11.53
8990,-13.28
8991,-13.74
8992,-12.9
8993,-10
8994,-6.64
8995,-5.5
8996,-6.95
8997,-9.39
8998,-10.31
8999,-9.39
9000,-8.55
9001,-7.94
9002,-6.87
9003,-6.11
9004,-5.73
9005,-5.5
9006,-6.26
9007,-7.63
9008,-7.71
9009,-7.02
9010,-6.87
9011,-7.02
9012,-6.87
9013,-5.8
9014,-4.58
9015,-4.58
9016,-5.27
9017,-4.89
9018,-3.05
9019,-1.53
9020,-1.22
9021,-1.3
9022,-2.44
9023,-3.74
9024,-2.98
9025,-0.92
9026,-0.15
9027,-0.38
9028,1.45
9029,5.04
9030,6.26
9031,4.58
9032,2.75
9033,2.29
9034,3.74
9035,6.26
9036,7.56
9037,7.56
9038,7.02
9039,5.42
9040,3.74
9041,3.97
9042,5.57
9043,6.26
9044,5.95
9045,6.26
9046,7.63
9047,7.56
9048,5.57
9049,3.89
9050,3.66
9051,4.43
9052,5.5
9053,6.64
9054,7.33
9055,6.79
9056,6.03
9057,6.41
9058,7.48
9059,8.4
9060,9.24
9061,9.77
9062,10.15
9063,8.93
9064,5.04
9065,1.37
9066,0.76
9067,2.29
9068,3.36
9069,3.82
9070,4.35
9071,4.89
9072,4.89
9073,3.82
9074,1.91
9075,0.23
9076,0.08
9077,1.3
9078,2.06
9079,1.53
9080,0.46
9081,-0.76
9082,-2.14
9083,-1.98
9084,0.69
9085,3.51
9086,4.2
9087,4.27
9088,4.96
9089,5.04
9090,3.44
9091,1.83
9092,1.91
9093,3.59
9094,5.88
9095,6.79
9096,5.34
9097,3.82
9098,3.66
9099,3.66
9100,3.28
9101,3.05
9102,3.21
9103,4.27
9104,5.65
9105,4.96
9106,2.75
9107,1.37
9108,1.07
9109,1.6
9110,3.82
9111,6.79
9112,8.93
9113,10.08
9114,10.38
9115,9.85
9116,9.24
9117,9.69
9118,10.92
9119,11.98
9120,12.52
9121,12.98
9122,13.13
9123,12.44
9124,11.83
9125,12.52
9126,14.12
9127,15.73
9128,16.87
9129,16.95
9130,15.42
9131,12.98
9132,10.76
9133,9.62
9134,9.85
9135,10.69
9136,11.15
9137,11.22
9138,10.99
9139,9.62
9140,7.56
9141,7.25
9142,9.47
9143,11.6
9144,12.14
9145,11.68
9146,10.38
9147,8.7
9148,7.56
9149,7.25
9150,7.1
9151,7.33
9152,8.02
9153,7.86
9154,7.02
9155,6.72
9156,6.64
9157,6.03
9158,5.11
9159,5.04
9160,5.95
9161,7.02
9162,7.63
9163,7.48
9164,6.41
9165,5.04
9166,4.27
9167,4.2
9168,4.89
9169,6.18
9170,6.95
9171,7.02
9172,6.72
9173,6.26
9174,5.42
9175,5.27
9176,6.18
9177,7.48
9178,8.4
9179,9.08
9180,9.62
9181,9.39
9182,8.17
9183,7.33
9184,7.94
9185,9.47
9186,10.69
9187,11.07
9188,10.61
9189,9.31
9190,7.63
9191,6.34
9192,6.03
9193,6.64
9194,7.71
9195,8.4
9196,8.09
9197,7.02
9198,5.95
9199,6.41
9200,7.94
9201,8.78
9202,9.24
9203,9.69
9204,10.08
9205,9.92
9206,9.16
9207,9.01
9208,9.77
9209,11.07
9210,11.83
9211,11.37
9212,10.08
9213,9.01
9214,8.17
9215,7.25
9216,7.02
9217,7.48
9218,8.17
9219,9.39
9220,10.99
9221,11.53
9222,10.46
9223,8.7
9224,7.33
9225,6.72
9226,6.87
9227,7.25
9228,8.32
9229,9.24
9230,7.94
9231,5.19
9232,3.66
9233,4.43
9234,7.1
9235,10.23
9236,11.37
9237,9.69
9238,7.48
9239,6.95
9240,7.86
9241,8.63
9242,9.01
9243,9.62
9244,9.85
9245,9.39
9246,8.85
9247,8.24
9248,6.87
9249,5.11
9250,4.58
9251,5.42
9252,6.26
9253,7.25
9254,8.4
9255,8.47
9256,7.63
9257,7.1
9258,7.18
9259,7.71
9260,8.4
9261,8.78
9262,8.85
9263,8.32
9264,6.79
9265,5.11
9266,4.05
9267,4.05
9268,5.42
9269,7.18
9270,7.71
9271,7.56
9272,7.4
9273,6.11
9274,4.12
9275,4.05
9276,6.03
9277,7.4
9278,7.56
9279,7.56
9280,6.72
9281,4.2
9282,1.98
9283,1.68
9284,2.82
9285,3.51
9286,2.37
9287,0.61
9288,0.61
9289,1.76
9290,2.21
9291,3.13
9292,5.65
9293,8.09
9294,9.39
9295,9.85
9296,9.54
9297,8.93
9298,8.02
9299,6.41
9300,3.97
9301,1.83
9302,1.07
9303,1.83
9304,2.75
9305,1.83
9306,-0.15
9307,-1.15
9308,-0.46
9309,0.84
9310,2.29
9311,3.21
9312,2.98
9313,1.98
9314,0.92
9315,-0.23
9316,-1.45
9317,-1.83
9318,-1.07
9319,0
9320,0.84
9321,0.31
9322,-1.37
9323,-2.44
9324,-1.83
9325,-0.61
9326,0.15
9327,0.99
9328,2.14
9329,3.05
9330,3.44
9331,4.05
9332,4.58
9333,4.43
9334,4.27
9335,4.81
9336,5.42
9337,5.57
9338,5.57
9339,5.42
9340,3.97
9341,1.83
9342,0.92
9343,1.22
9344,1.98
9345,3.51
9346,5.11
9347,5.04
9348,2.75
9349,0.92
9350,2.21
9351,5.11
9352,6.87
9353,7.25
9354,7.18
9355,6.72
9356,5.57
9357,4.96
9358,5.34
9359,5.95
9360,6.79
9361,7.71
9362,7.79
9363,6.72
9364,5.42
9365,4.73
9366,4.5
9367,4.66
9368,4.73
9369,3.66
9370,2.29
9371,1.3
9372,0.08
9373,-0.99
9374,-0.53
9375,1.22
9376,2.37
9377,1.98
9378,2.21
9379,3.66
9380,4.12
9381,2.67
9382,2.52
9383,5.19
9384,8.32
9385,10.46
9386,12.6
9387,15.11
9388,16.87
9389,17.02
9390,16.72
9391,16.87
9392,18.17
9393,20.92
9394,23.89
9395,25.5
9396,25.65
9397,24.12
9398,21.22
9399,18.32
9400,17.02
9401,16.79
9402,15.65
9403,13.13
9404,10.69
9405,9.69
9406,10.61
9407,11.76
9408,11.37
9409,10.15
9410,10.92
9411,13.28
9412,15.42
9413,16.41
9414,16.26
9415,15.8
9416,15.8
9417,16.41
9418,17.94
9419,20.38
9420,22.06
9421,21.53
9422,19.69
9423,18.17
9424,17.86
9425,18.32
9426,19.39
9427,21.22
9428,22.98
9429,23.28
9430,21.53
9431,19.39
9432,19.08
9433,20.61
9434,22.82
9435,24.81
9436,25.95
9437,25.88
9438,24.81
9439,23.44
9440,22.75
9441,23.05
9442,23.66
9443,24.05
9444,23.21
9445,21.53
9446,20.84
9447,21.45
9448,21.83
9449,21.3
9450,21.53
9451,23.36
9452,25.42
9453,26.11
9454,25.88
9455,25.04
9456,23.66
9457,22.52
9458,22.37
9459,22.44
9460,22.9
9461,24.05
9462,24.43
9463,23.44
9464,22.29
9465,21.45
9466,20.38
9467,20.46
9468,22.44
9469,24.12
9470,24.35
9471,23.74
9472,22.29
9473,19.85
9474,17.79
9475,17.94
9476,20
9477,21.76
9478,23.21
9479,23.66
9480,22.29
9481,19.92
9482,18.32
9483,17.79
9484,17.86
9485,18.4
9486,19.01
9487,19.62
9488,20.38
9489,21.3
9490,21.53
9491,20.76
9492,20.08
9493,19.62
9494,19.54
9495,20.23
9496,20.69
9497,19.54
9498,17.86
9499,17.4
9500,17.71
9501,17.86
9502,17.63
9503,17.1
9504,16.95
9505,18.24
9506,19.92
9507,20
9508,18.85
9509,19.31
9510,21.83
9511,24.27
9512,25.34
9513,25.73
9514,24.96
9515,22.9
9516,21.68
9517,22.67
9518,24.2
9519,24.58
9520,24.73
9521,24.66
9522,22.82
9523,20.08
9524,18.7
9525,18.78
9526,19.08
9527,19.62
9528,20.46
9529,20.38
9530,19.62
9531,18.93
9532,18.24
9533,17.25
9534,17.4
9535,19.16
9536,21.45
9537,22.52
9538,21.83
9539,20.31
9540,19.39
9541,18.63
9542,17.63
9543,16.95
9544,16.95
9545,17.1
9546,16.95
9547,16.41
9548,14.96
9549,13.36
9550,13.36
9551,13.74
9552,12.75
9553,11.6
9554,11.53
9555,11.37
9556,9.69
9557,7.71
9558,7.02
9559,6.87
9560,6.49
9561,7.25
9562,9.08
9563,9.01
9564,6.18
9565,3.51
9566,3.36
9567,4.58
9568,5.27
9569,5.8
9570,6.72
9571,7.1
9572,6.41
9573,5.11
9574,4.35
9575,5.27
9576,7.18
9577,8.17
9578,8.02
9579,7.79
9580,7.18
9581,6.41
9582,6.87
9583,9.08
9584,11.37
9585,12.6
9586,13.44
9587,14.5
9588,15.19
9589,14.66
9590,13.59
9591,13.82
9592,15.95
9593,18.63
9594,20.31
9595,20.15
9596,18.78
9597,17.25
9598,16.26
9599,16.03
9600,16.87
9601,17.79
9602,18.02
9603,18.4
9604,19.47
9605,20
9606,18.24
9607,16.34
9608,16.87
9609,18.47
9610,19.24
9611,19.69
9612,20.23
9613,20.53
9614,19.92
9615,18.24
9616,16.41
9617,15.57
9618,16.11
9619,16.64
9620,16.41
9621,15.65
9622,14.05
9623,12.14
9624,10.99
9625,11.45
9626,12.98
9627,14.35
9628,14.96
9629,14.73
9630,13.59
9631,12.14
9632,10.99
9633,10.99
9634,12.6
9635,14.89
9636,16.18
9637,15.95
9638,15.04
9639,13.36
9640,11.22
9641,10.46
9642,11.22
9643,11.68
9644,11.22
9645,10.15
9646,9.24
9647,9.39
9648,10.15
9649,11.22
9650,12.67
9651,13.89
9652,14.05
9653,14.05
9654,14.12
9655,13.05
9656,10.76
9657,9.31
9658,10.15
9659,12.44
9660,14.43
9661,14.58
9662,13.36
9663,12.9
9664,13.51
9665,13.82
9666,13.13
9667,12.29
9668,12.29
9669,12.82
9670,13.36
9671,13.05
9672,12.06
9673,11.22
9674,11.15
9675,12.21
9676,14.05
9677,15.11
9678,14.27
9679,13.13
9680,13.28
9681,13.82
9682,14.12
9683,14.66
9684,15.73
9685,17.1
9686,18.4
9687,19.62
9688,20.92
9689,21.37
9690,20.15
9691,18.85
9692,19.69
9693,21.91
9694,22.75
9695,21.6
9696,20.23
9697,19.47
9698,18.85
9699,18.55
9700,19.16
9701,20.92
9702,22.6
9703,22.75
9704,21.76
9705,21.22
9706,21.3
9707,21.15
9708,20.99
9709,21.83
9710,23.28
9711,23.89
9712,23.13
9713,22.52
9714,22.44
9715,21.76
9716,21.3
9717,22.37
9718,24.35
9719,25.27
9720,25.11
9721,25.27
9722,25.42
9723,24.73
9724,23.51
9725,22.37
9726,21.22
9727,19.92
9728,19.01
9729,19.47
9730,21.53
9731,23.59
9732,23.97
9733,23.82
9734,24.96
9735,27.02
9736,28.93
9737,29.85
9738,29.16
9739,27.56
9740,26.34
9741,26.03
9742,27.02
9743,28.78
9744,30.38
9745,31.98
9746,32.52
9747,30.99
9748,28.4
9749,27.33
9750,29.01
9751,31.83
9752,33.59
9753,33.74
9754,32.6
9755,30.69
9756,28.85
9757,28.47
9758,29.77
9759,30.99
9760,31.37
9761,31.45
9762,31.15
9763,30.84
9764,31.22
9765,31.76
9766,32.29
9767,32.98
9768,33.13
9769,32.98
9770,32.98
9771,32.82
9772,32.75
9773,33.66
9774,34.96
9775,35.11
9776,34.81
9777,35.11
9778,35.34
9779,35.42
9780,35.04
9781,33.97
9782,33.13
9783,34.05
9784,36.95
9785,38.93
9786,38.63
9787,37.79
9788,36.87
9789,34.66
9790,32.98
9791,33.82
9792,35.73
9793,36.72
9794,36.18
9795,35.11
9796,34.66
9797,34.35
9798,33.59
9799,33.13
9800,34.66
9801,37.48
9802,39.69
9803,40.23
9804,39.31
9805,37.86
9806,37.18
9807,36.79
9808,36.49
9809,37.33
9810,38.4
9811,37.86
9812,36.64
9813,36.49
9814,36.34
9815,34.96
9816,33.28
9817,33.21
9818,34.43
9819,35.04
9820,34.43
9821,33.36
9822,31.98
9823,29.85
9824,27.86
9825,27.18
9826,27.71
9827,28.78
9828,29.24
9829,28.32
9830,27.4
9831,27.63
9832,28.32
9833,28.17
9834,27.63
9835,28.32
9836,29.85
9837,30.31
9838,28.85
9839,26.87
9840,25.95
9841,26.49
9842,27.1
9843,27.94
9844,29.47
9845,30.76
9846,30.99
9847,30.15
9848,28.55
9849,27.18
9850,26.72
9851,27.25
9852,27.79
9853,27.86
9854,27.4
9855,25.95
9856,23.51
9857,21.98
9858,22.9
9859,25.11
9860,26.64
9861,27.25
9862,26.87
9863,25.42
9864,23.89
9865,22.52
9866,21.83
9867,22.21
9868,22.98
9869,23.59
9870,23.36
9871,21.83
9872,20.15
9873,19.01
9874,18.47
9875,19.77
9876,22.67
9877,24.81
9878,25.27
9879,24.73
9880,24.2
9881,23.82
9882,22.37
9883,20.84
9884,21.45
9885,24.12
9886,27.33
9887,29.92
9888,30.53
9889,29.08
9890,27.56
9891,27.79
9892,29.39
9893,31.45
9894,33.21
9895,33.59
9896,33.13
9897,32.98
9898,32.75
9899,31.45
9900,29.54
9901,28.93
9902,29.39
9903,28.85
9904,27.02
9905,25.42
9906,25.57
9907,26.87
9908,27.4
9909,26.87
9910,27.02
9911,28.47
9912,29.62
9913,30
9914,30.15
9915,30.38
9916,30.99
9917,32.37
9918,33.59
9919,34.05
9920,34.27
9921,33.74
9922,31.76
9923,29.08
9924,27.18
9925,26.72
9926,27.71
9927,29.47
9928,30.46
9929,29.92
9930,28.4
9931,26.11
9932,23.74
9933,22.9
9934,23.89
9935,24.81
9936,24.58
9937,22.6
9938,18.93
9939,16.18
9940,15.5
9941,15.5
9942,16.34
9943,18.63
9944,20.23
9945,20.31
9946,20.31
9947,20.23
9948,20
9949,20.38
9950,22.14
9951,24.96
9952,26.87
9953,26.56
9954,25.57
9955,25.19
9956,25.27
9957,25.73
9958,26.26
9959,26.26
9960,25.65
9961,24.96
9962,24.58
9963,24.43
9964,23.74
9965,21.83
9966,20.08
9967,19.85
9968,20.61
9969,21.6
9970,22.06
9971,21.91
9972,21.45
9973,20.46
9974,20
9975,21.37
9976,22.98
9977,23.13
9978,22.29
9979,21.15
9980,20.15
9981,19.47
9982,19.01
9983,19.39
9984,20.92
9985,22.98
9986,24.05
9987,23.97
9988,23.51
9989,23.05
9990,22.6
9991,22.9
9992,24.66
9993,27.56
9994,29.69
9995,29.31
9996,27.56
9997,26.95
9998,27.25
9999,27.25
10000,27.02
10001,26.26
10002,25.04
10003,24.89
10004,25.42
10005,24.58
10006,22.67
10007,21.68
10008,21.07
10009,20.53
10010,21.3
10011,22.98
10012,23.97
10013,24.5
10014,24.66
10015,25.19
10016,26.41
10017,27.79
10018,28.93
10019,30.08
10020,30.84
10021,31.22
10022,30.92
10023,28.63
10024,25.27
10025,23.89
10026,25.27
10027,28.02
10028,30.31
10029,30.69
10030,29.08
,27.1
,26.18
,26.03
,26.34
,26.95
,27.71
,28.24
,28.09
,26.72
,24.81
,23.66
,23.82
,24.58
,25.11
,25.11
,23.89
,21.68
,20.08
,19.62
,20.23
,21.53
,22.06
,21.68
,21.76
,21.6
,19.85
,17.86
,17.4
,18.32
,20.31
,22.67
,23.89
,22.9
,20.84
,18.78
,16.95
,16.41
,17.4
,18.93
,19.85
,20
,18.85
,16.72
,15.19
,15.27
,16.79
,18.24
,18.7
,18.55
,18.09
,17.63
,17.71
,17.63
,16.64
,16.49
,17.71
,18.63
,17.94
,15.88
,13.51
,13.36
,15.34
,16.95
,16.87
,16.26
,15.73
,15.11
,13.97
,12.82
,12.29
,12.98
,14.5
,15.34
,14.66
,13.21
,11.53
,9.92
,9.08
,9.01
,8.24
,7.25
,7.25
,7.48
,6.56
,5.11
,3.97
,3.28
,3.82
,5.5
,6.87
,6.95
,6.49
,6.26
,6.41
,6.72
,7.1
,7.79
,8.63
,8.55
,7.02
,4.43
,2.82
,3.66
,6.18
,8.32
,9.01
,8.24
,7.1
,5.73
,4.12
,3.44
,4.73
,6.72
,8.17
,8.93
,8.55
,7.25
,5.95
,5.19
,4.89
,5.19
,6.03
,6.87
,6.49
,4.66
,2.52
,1.37
,1.45
,2.6
,4.12
,5.34
,6.49
,7.48
,7.63
,6.56
,4.66
,3.74
,5.04
,7.71
,9.85
,10.08
,8.17
,6.03
,5.57
,6.34
,7.18
,8.32
,9.85
,10.23
,8.78
,6.79
,5.88
,5.95
,6.72
,7.79
,8.7
,8.24
,5.95
,3.51
,2.75
,3.74
,5.04
,5.73
,5.8
,5.65
,5.34
,4.66
,3.51
,3.13
,4.35
,5.65
,5.73
,5.73
,6.11
,5.8
,4.89
,4.66
,5.57
,6.18
,6.26
,6.79
,7.86
,8.78
,8.85
,8.09
,7.02
,6.95
,8.02
,9.08
,9.16
,8.24
,7.25
,6.56
,6.11
,6.64
,8.02
,9.31
,9.62
,9.31
,8.93
,8.09
,6.34
,4.81
,5.57
,8.09
,9.92
,10.46
,10.84
,10.23
,7.94
,5.73
,5.95
,8.4
,11.3
,12.82
,12.14
,10.46
,9.62
,10.15
,10.76
,10.46
,10.08
,10.31
,9.85
,7.86
,5.95
,5.04
,4.27
,4.58
,6.64
,8.24
,7.48
,5.95
,5.27
,5.19
,5.8
,6.79
,7.79
,9.08
,10.08
,9.77
,7.71
,4.66
,2.52
,2.06
,2.75
,4.35
,5.57
,5.19
,3.74
,2.29
,1.15
,0.61
,0.84
,1.53
,2.44
,3.44
,4.12
,4.05
,2.75
,1.83
,2.75
,4.35
,5.5
,6.34
,5.88
,4.05
,3.36
,4.43
,5.57
,5.88
,6.34
,7.33
,8.24
,8.63
,8.47
,8.24
,8.24
,8.09
,7.79
,7.86
,8.09
,7.25
,5.57
,4.05
,2.82
,2.37
,3.51
,5.65
,7.1
,6.79
,4.89
,3.28
,3.36
,4.73
,6.03
,6.72
,7.33
,7.4
,6.79
,6.41
,6.56
,6.64
,6.87
,7.56
,7.71
,7.18
,7.56
,8.85
,8.93
,7.4
,6.18
,6.56
,8.55
,9.92
,9.31
,7.71
,6.18
,4.81
,3.97
,3.51
,3.28
,3.28
,3.51
,3.89
,3.97
,3.82
,4.66
,7.18
,9.47
,9.69
,8.17
,6.26
,4.81
,3.21
,1.45
,0.61
,1.15
,2.21
,2.52
,1.15
,-1.45
,-3.44
,-2.9
,-0.23
,2.14
,3.51
,3.82
,3.28
,1.22
,-1.15
,-1.3
,0.61
,2.29
,3.05
,3.89
,4.96
,5.19
,4.66
,4.43
,5.04
,6.79
,9.24
,10.76
,10.31
,9.24
,9.31
,9.69
,8.63
,7.02
,6.03
,5.8
,5.19
,2.98
,-0.53
,-4.05
,-6.72
,-6.95
,-4.12
,-0.76
,0
,-0.46
,-0.84
,-1.76
,-2.82
,-3.13
,-2.14
,-0.46
,0.61
,0.23
,-1.22
,-3.21
,-5.27
,-6.18
,-5.19
,-3.82
,-3.13
,-2.37
,-1.15
,-0.92
,-2.06
,-3.82
,-5.5
,-6.49
,-5.34
,-2.29
,-0.38
,-0.23
,-0.46
,-0.46
,0.84
,3.13
,4.66
,5.27
,5.57
,5.34
,4.2
,2.9
,2.21
,2.6
,5.04
,8.4
,9.62
,8.24
,6.26
,4.66
,3.51
,3.74
,5.42
,7.4
,8.17
,7.79
,6.72
,5.04
,2.6
,0.61
,0.38
,1.45
,1.91
,1.07
,0.15
,0.38
,0.92
,0.69
,0.38
,0.76
,1.76
,2.67
,2.44
,1.3
,0
,-1.37
,-2.6
,-3.36
,-3.28
,-2.44
,-1.37
,-1.37
,-3.05
,-4.73
,-4.58
,-2.67
,-0.23
,1.53
,2.14
,1.53
,-0.15
,-2.52
,-3.97
,-3.59
,-1.91
,-0.76
,-0.46
,-1.07
,-3.13
,-6.03
,-7.94
,-7.48
,-4.5
,-0.38
,2.6
,3.44
,2.75
,1.6
,0.84
,1.22
,2.52
,3.36
,3.59
,3.36
,2.52
,1.3
,0.08
,-0.46
,0.08
,1.45
,2.6
,3.28
,3.82
,3.59
,2.06
,0.38
,0.15
,1.53
,3.44
,4.43
,3.28
,1.07
,-0.38
,-1.83
,-4.05
,-5.34
,-4.89
,-3.89
,-1.76
,0.38
,0.15
,-1.15
,-1.22
,-0.23
,0.92
,1.98
,1.83
,0.69
,-0.76
,-3.28
,-6.18
,-7.18
,-5.5
,-2.98
,-1.91
,-2.6
,-3.36
,-2.9
,-2.06
,-1.83
,-1.53
,-0.92
,-0.46
,0.23
,0.99
,0
,-2.6
,-4.27
,-4.43
,-3.82
,-3.28
,-2.98
,-1.91
,-0.92
,-1.22
,-2.82
,-4.05
,-3.51
,-2.44
,-2.37
,-2.9
,-2.9
,-2.75
,-3.13
,-4.35
,-5.34
,-5.04
,-4.43
,-4.43
,-4.58
,-3.89
,-2.44
,-1.53
,-1.98
,-2.06
,-0.92
,0.08
,-0.23
,-1.53
,-2.98
,-4.05
,-4.43
,-4.05
,-3.28
,-2.9
,-3.36
,-3.74
,-3.44
,-3.74
,-5.19
,-6.03
,-5.57
,-4.58
,-3.66
,-2.75
,-2.98
,-4.58
,-6.26
,-6.87
,-6.26
,-5.42
,-5.88
,-6.95
,-7.33
,-8.09
,-10.53
,-12.21
,-10.99
,-8.93
,-8.17
,-8.24
,-8.55
,-9.69
,-11.6
,-12.98
,-11.91
,-9.39
,-8.09
,-8.47
,-9.39
,-9.77
,-10.08
,-11.37
,-12.67
,-12.29
,-11.07
,-10.08
,-9.39
,-9.39
,-10.92
,-13.51
,-15.42
,-15.65
,-13.82
,-10.99
,-9.16
,-9.01
,-10.53
,-12.29
,-12.67
,-12.06
,-10.92
,-9.92
,-10.31
,-11.45
,-12.14
,-12.75
,-13.28
,-12.44
,-10.53
,-9.24
,-8.78
,-8.78
,-10.08
,-11.83
,-12.14
,-11.15
,-9.62
,-7.94
,-6.41
,-5.8
,-6.18
,-6.87
,-6.79
,-6.11
,-5.34
,-4.81
,-4.2
,-3.82
,-4.58
,-6.64
,-8.55
,-9.47
,-9.62
,-9.62
,-8.78
,-7.94
,-9.01
,-10.53
,-9.92
,-8.85
,-9.16
,-9.08
,-7.1
,-4.81
,-3.44
,-2.44
,-1.91
,-2.44
,-3.44
,-3.82
,-3.44
,-3.13
,-4.05
,-6.11
,-7.63
,-7.56
,-7.1
,-6.79
,-5.42
,-2.98
,-0.76
,0
,-0.53
,-1.22
,-0.99
,-0.31
,0.84
,2.67
,4.2
,5.11
,5.8
,5.5
,4.05
,3.28
,4.73
,6.72
,7.1
,6.72
,6.41
,6.41
,6.87
,7.79
,8.17
,7.63
,7.48
,7.94
,7.56
,6.26
,5.27
,4.96
,5.73
,7.33
,8.4
,8.09
,7.1
,6.18
,4.96
,3.66
,3.51
,4.81
,6.11
,6.64
,6.18
,4.81
,3.28
,1.68
,-0.15
,-1.37
,-1.3
,0
,1.83
,2.98
,2.37
,0.92
,0.15
,1.07
,4.66
,9.01
,11.6
,11.91
,10.61
,8.78
,7.4
,7.33
,8.85
,10.61
,11.68
,11.91
,11.6
,11.3
,10.84
,10.69
,11.91
,13.89
,14.89
,15.11
,15.5
,14.66
,11.98
,9.62
,9.08
,9.77
,10.99
,12.52
,13.89
,14.2
,13.36
,12.44
,12.21
,12.14
,11.76
,10.69
,9.69
,9.69
,10
,9.16
,7.18
,5.27
,4.5
,5.34
,6.26
,5.57
,4.89
,5.19
,5.8
,6.95
,8.78
,9.92
,9.85
,9.39
,9.16
,9.16
,9.16
,8.78
,8.24
,8.93
,10.53
,11.53
,10.99
,9.77
,8.78
,8.02
,7.71
,8.55
,9.69
,9.85
,9.54
,10.15
,10.61
,10.31
,10.46
,11.37
,11.3
,9.85
,9.01
,9.24
,9.54
,9.54
,10.38
,12.44
,13.97
,13.59
,12.9
,13.82
,15.57
,15.34
,13.66
,14.12
,17.56
,20.84
,21.45
,19.62
,17.02
,14.43
,12.29
,10.99
,11.22
,13.05
,14.58
,13.66
,10.99
,8.24
,5.88
,4.58
,5.04
,6.64
,8.24
,9.31
,9.69
,9.31
,8.09
,6.56
,6.18
,7.1
,8.4
,10
,11.76
,11.91
,10.84
,10.46
,11.91
,14.12
,15.34
,14.89
,14.05
,13.89
,14.05
,13.44
,11.6
,9.54
,8.63
,8.85
,9.62
,9.62
,8.85
,8.7
,9.16
,9.54
,10.53
,12.06
,13.21
,13.82
,14.05
,14.05
,13.89
,13.82
,14.66
,15.88
,16.03
,15.73
,15.57
,15.04
,13.74
,12.67
,12.75
,13.51
,14.58
,15.11
,13.82
,10.99
,8.93
,8.24
,7.48
,6.49
,6.18
,5.65
,4.35
,2.82
,1.53
,0.99
,0.84
,1.3
,2.9
,4.96
,6.26
,6.49
,5.8
,4.27
,2.06
,0.92
,1.76
,3.21
,4.05
,4.2
,3.89
,3.44
,2.6
,1.83
,2.14
,3.51
,4.73
,5.04
,4.89
,4.89
,5.19
,6.03
,6.87
,6.72
,5.34
,3.21
,1.6
,0.99
,0.38
,0.31
,1.6
,3.44
,5.11
,5.73
,5.19
,4.43
,4.35
,4.27
,3.89
,3.89
,4.58
,5.19
,5.34
,4.35
,2.6
,1.53
,2.29
,4.27
,5.95
,6.41
,6.49
,6.95
,6.87
,6.03
,5.19
,5.5
,7.1
,8.55
,8.93
,8.24
,6.64
,3.82
,0.84
,-0.61
,0.76
,4.35
,7.1
,8.24
,8.7
,8.09
,6.87
,6.95
,8.85
,10.38
,9.54
,7.79
,8.02
,9.54
,9.16
,7.86
,8.63
,10
,9.85
,9.31
,9.16
,8.55
,7.33
,7.02
,7.79
,8.4
,9.24
,10.38
,10.46
,9.54
,8.47
,6.72
,4.81
,4.5
,6.26
,8.24
,8.78
,7.48
,4.73
,1.68
,0
,0.23
,1.6
,2.52
,2.06
,0.76
,-0.38
,-1.45
,-2.14
,-1.53
,0.31
,2.21
,3.36
,3.59
,3.05
,1.76
,0.38
,0.15
,1.76
,3.89
,5.11
,5.11
,4.12
,3.21
,2.75
,2.14
,1.83
,3.05
,5.11
,7.02
,7.94
,6.72
,3.66
,1.98
,3.36
,6.41
,9.39
,11.53
,12.21
,11.3
,9.54
,8.09
,7.63
,8.09
,9.24
,11.07
,12.37
,12.06
,10.92
,10.15
,10.46
,11.98
,14.05
,15.11
,14.35
,13.36
,12.82
,11.83
,10.08
,9.08
,9.16
,8.78
,8.09
,7.94
,7.86
,7.4
,7.25
,7.86
,8.47
,8.63
,8.78
,9.01
,8.93
,7.33
,5.11
,4.66
,6.03
,7.25
,8.93
,11.37
,12.21
,10.76
,9.16
,8.02
,7.56
,8.32
,9.01
,8.4
,6.64
,4.05
,2.21
,2.9
,4.89
,6.03
,6.34
,7.18
,8.63
,8.85
,6.87
,4.58
,4.12
,5.19
,6.18
,6.18
,5.73
,5.73
,5.8
,5.73
,5.57
,4.89
,4.27
,4.81
,5.19
,4.2
,3.13
,3.59
,4.5
,4.12
,3.59
,5.04
,8.02
,10.61
,11.15
,9.31
,6.56
,5.11
,5.42
,5.8
,5.04
,3.89
,3.21
,2.52
,1.98
,1.3
,0.76
,1.83
,4.12
,5.8
,6.56
,7.1
,6.56
,4.81
,3.82
,5.19
,8.02
,10.46
,10.99
,9.24
,6.64
,5.27
,6.03
,8.02
,9.16
,9.16
,10.15
,11.68
,10.84
,8.24
,6.95
,7.33
,8.24
,10.08
,11.68
,10.99
,8.47
,6.03
,4.81
,4.89
,5.57
,6.03
,6.18
,5.57
,3.89
,1.98
,0.76
,0.53
,1.37
,2.67
,3.36
,3.59
,3.13
,0.99
,-1.45
,-2.21
,-1.3
,0
,1.37
,2.44
,1.68
,-0.15
,-1.76
,-2.52
,-1.76
,0.69
,3.36
,4.89
,5.95
,6.26
,5.19
,3.66
,3.13
,4.12
,5.88
,7.18
,7.1
,6.18
,5.88
,6.56
,6.87
,6.79
,7.56
,9.16
,10.61
,11.45
,11.37
,10
,7.79
,5.65
,5.19
,6.79
,9.01
,10
,9.31
,6.95
,4.5
,4.12
,5.5
,6.79
,7.33
,7.63
,7.71
,7.18
,6.41
,5.73
,5.27
,5.34
,6.11
,7.25
,8.7
,9.24
,8.63
,8.17
,8.32
,8.55
,8.63
,8.4
,7.25
,5.34
,3.36
,1.91
,1.68
,2.67
,4.58
,6.64
,7.56
,6.34
,4.66
,3.97
,3.51
,2.9
,2.98
,3.36
,3.74
,4.2
,4.58
,3.66
,1.22
,-0.53
,0.23
,3.36
,6.18
,5.88
,2.82
,-0.46
,-2.37
,-2.9
,-1.83
,0.61
,2.29
,1.83
,-0.31
,-3.13
,-5.5
,-6.41
,-5.65
,-3.66
,-0.84
,1.3
,1.3
,-0.76
,-3.74
,-5.8
,-6.56
,-6.56
,-5.95
,-4.35
,-2.9
,-3.28
,-4.81
,-5.8
,-5.73
,-4.81
,-2.67
,-0.76
,-0.38
,-0.99
,-1.98
,-2.6
,-2.9
,-4.35
,-5.42
,-3.82
,-0.84
,0.31
,-0.31
,-1.15
,-0.84
,0.76
,2.67
,3.51
,4.5
,6.95
,9.62
,10
,8.02
,5.73
,5.19
,6.11
,7.48
,7.4
,4.43
,-0.23
,-4.05
,-5.42
,-4.66
,-2.67
,-0.61
,0.46
,0.53
,0.15
,-0.23
,-0.84
,-1.68
,-0.53
,2.52
,4.35
,4.27
,3.89
,2.75
,1.3
,1.53
,2.9
,3.66
,3.44
,3.82
,4.89
,4.96
,3.97
,3.13
,3.28
,4.27
,4.2
,2.67
,1.53
,0.76
,-0.61
,-2.67
,-3.28
,-1.53
,1.37
,3.74
,5.04
,5.11
,4.43
,3.05
,0.23
,-1.91
,-0.38
,2.9
,4.12
,3.82
,3.59
,2.6
,0.69
,0.38
,2.29
,4.81
,7.25
,9.01
,9.24
,8.09
,6.34
,5.8
,7.02
,8.09
,7.86
,7.18
,6.72
,5.95
,4.27
,2.9
,3.28
,4.81
,6.56
,8.93
,10.53
,9.54
,7.48
,7.48
,8.85
,9.01
,8.93
,9.47
,10.31
,11.3
,12.29
,12.14
,11.15
,11.68
,13.97
,15.57
,15.11
,13.66
,12.14
,11.68
,12.29
,12.67
,12.44
,12.6
,13.36
,13.74
,13.05
,12.06
,10.76
,8.93
,8.17
,8.55
,8.7
,8.02
,6.72
,4.81
,3.13
,2.44
,2.21
